# t (s)	mx ()	my ()	mz ()	m.region1x ()	m.region1y ()	m.region1z ()
0	0	1	0	0	1	0
1.023e-12	-0.01704304	0.999791	0.01099728	-0.04610329	0.99882257	0.015101781
2.047e-12	-0.033696618	0.9991761	0.022038693	-0.091344655	0.9953301	0.031211488
4.095e-12	-0.06575531	0.99680614	0.044199355	-0.17829931	0.9817605	0.06599798
8.191e-12	-0.124724545	0.98802936	0.088685706	-0.3336562	0.931826	0.14273715
1.4971080206134027e-11	-0.20684896	0.9642593	0.16212733	-0.52478456	0.80554414	0.2751305
2.1844793939382422e-11	-0.27051446	0.9323396	0.2353661	-0.6382079	0.66009665	0.39616928
2.8909299811039762e-11	-0.31641805	0.89515793	0.30848214	-0.6939394	0.5222899	0.4956141
3.6243917150893255e-11	-0.34489298	0.8548368	0.3814286	-0.7144464	0.40366706	0.57147
4.386345178024592e-11	-0.3560354	0.8131355	0.45355016	-0.71764064	0.30586183	0.6256113
5.17416051222229e-11	-0.3503253	0.7712612	0.5238961	-0.71522593	0.2247265	0.6617311
5.96971315013259e-11	-0.32930493	0.73032844	0.59038043	-0.7130375	0.15515497	0.6836871
6.775932946560395e-11	-0.29478908	0.68950135	0.65293384	-0.7125343	0.09076918	0.6956743
7.600007995073815e-11	-0.24814399	0.64709514	0.71167284	-0.713101	0.027179293	0.70045626
8.44973264738969e-11	-0.19050542	0.6008222	0.76646674	-0.71362984	-0.038101934	0.69939816
9.329734105522543e-11	-0.123379245	0.5480324	0.8166263	-0.7133049	-0.106068745	0.6926828
1.0239542869633633e-10	-0.04925257	0.4860561	0.86085755	-0.7118819	-0.17667757	0.6796006
1.1179209997312947e-10	0.02858016	0.4122912	0.89764225	-0.70958847	-0.24964282	0.6587775
1.2151121135089008e-10	0.106155634	0.32452327	0.92528147	-0.706798	-0.32462716	0.6283711
1.3139731102975502e-10	0.1776072	0.22357476	0.94163275	-0.7037482	-0.39952764	0.58726585
1.4110517737357034e-10	0.23678072	0.1148085	0.945439	-0.7003347	-0.47049525	0.53656316
1.5091036123068867e-10	0.28305593	-0.00152937	0.93657374	-0.6958072	-0.53806424	0.47543913
1.606128028756741e-10	0.31479046	-0.11898568	0.9152551	-0.68929183	-0.599384	0.40655327
1.702964309148695e-10	0.3336707	-0.23418732	0.88198936	-0.6797042	-0.65394163	0.33165962
1.8007969026442894e-10	0.34268662	-0.3444004	0.83707947	-0.6659436	-0.70169795	0.2524711
1.8972020859086272e-10	0.34586555	-0.4435926	0.7828581	-0.64777404	-0.74149746	0.1736308
1.9891767160241114e-10	0.34811604	-0.5272295	0.72312087	-0.6259624	-0.7731801	0.09964393
2.0793235468560633e-10	0.35387897	-0.5972462	0.6581738	-0.6003615	-0.79891825	0.029391676
2.170206185975913e-10	0.36721027	-0.6546169	0.5874693	-0.5703577	-0.8202207	-0.038955104
2.2606013494053492e-10	0.3912801	-0.6972197	0.5131072	-0.5361736	-0.8373117	-0.10511215
2.353117301844875e-10	0.42958966	-0.72411543	0.434076	-0.49613607	-0.8507698	-0.1723609
2.4462095757157977e-10	0.48336232	-0.7315978	0.35294348	-0.44961664	-0.8597808	-0.24154699
2.5365030333589517e-10	0.5496814	-0.716955	0.2742115	-0.3971219	-0.86289144	-0.312234
2.624285926293101e-10	0.6252638	-0.6786833	0.19928764	-0.33776888	-0.85821134	-0.3862802
2.7101528902459867e-10	0.7057105	-0.6152688	0.1293837	-0.2709372	-0.8425282	-0.46541083
2.794594403713532e-10	0.7853556	-0.52575207	0.06593828	-0.19702688	-0.8109123	-0.55090845
2.8792705091629283e-10	0.8585041	-0.40850353	0.0098345	-0.11710054	-0.755227	-0.6448536
2.961690260119643e-10	0.91552234	-0.2698481	-0.03531273	-0.03947664	-0.66779983	-0.7432381
3.042855573964291e-10	0.95087266	-0.114141524	-0.06861596	0.025599923	-0.53791785	-0.8425468
3.1263048170325024e-10	0.95989823	0.058398455	-0.08955278	0.06023253	-0.34809226	-0.9354346
3.204392975127975e-10	0.94050527	0.22279698	-0.09585768	0.035757396	-0.11800288	-0.992226
3.281453275498322e-10	0.8953625	0.3792489	-0.08912395	-0.0682366	0.1379776	-0.9878397
3.3569158786338804e-10	0.82925135	0.51946044	-0.07037237	-0.25145757	0.36908442	-0.8943369
3.428792809610507e-10	0.7509159	0.63577086	-0.042150676	-0.46924958	0.51797706	-0.7146189
3.503724804988545e-10	0.65946746	0.735673	-0.0032747802	-0.6810294	0.5692831	-0.45979565
3.582158298210299e-10	0.5602644	0.8154712	0.04595944	-0.8319708	0.52647793	-0.1738772
3.6598069680804343e-10	0.46543303	0.87024426	0.10128068	-0.89676857	0.43488455	0.080489814
3.7402146806066595e-10	0.37679896	0.90410376	0.16329935	-0.89610744	0.33617944	0.28955886
3.8214924697186397e-10	0.30157024	0.9183622	0.22877946	-0.8584546	0.26101333	0.4413985
3.905408160912204e-10	0.2418884	0.916218	0.29733872	-0.8117627	0.21781245	0.5417982
3.988047222987616e-10	0.20207058	0.9011343	0.36413413	-0.7792319	0.20144175	0.5934218
4.067064423932885e-10	0.18136859	0.87740266	0.4260793	-0.76968503	0.19415183	0.6080656
4.1458006947011346e-10	0.17659666	0.8464917	0.4849615	-0.7799789	0.1788413	0.5995283
4.2183433338019053e-10	0.18487678	0.812482	0.5360128	-0.79988104	0.14872961	0.58123815
4.288179519325874e-10	0.2029164	0.7750688	0.5817426	-0.82051027	0.10392104	0.5619118
4.357836402691422e-10	0.22925843	0.73321724	0.62357795	-0.8365379	0.047523357	0.5456704
4.4283407719915527e-10	0.2627991	0.68611264	0.6616706	-0.8452038	-0.015493679	0.5340843
4.4982789719321544e-10	0.30123013	0.63449144	0.6948456	-0.8462992	-0.07842428	0.5268185
4.5685912104656687e-10	0.3433228	0.57755667	0.7232018	-0.8416766	-0.13855039	0.5218574
4.6375409068912525e-10	0.38631094	0.51684844	0.745817	-0.83380044	-0.19312742	0.5171404
4.705132745403118e-10	0.42859095	0.45287985	0.7627234	-0.8246244	-0.242636	0.5109296
4.77251940918491e-10	0.46954042	0.38517743	0.7741737	-0.81508553	-0.28896374	0.50201607
4.840614684007857e-10	0.50854015	0.31350103	0.7801056	-0.80548286	-0.3336743	0.4896036
4.909933978917337e-10	0.54483986	0.23817244	0.780239	-0.7957877	-0.3776886	0.47320092
4.980738949053511e-10	0.57771915	0.16005813	0.7742338	-0.7858559	-0.42131898	0.45253286
5.053347865612483e-10	0.6067414	0.08028536	0.76175535	-0.77555084	-0.46450788	0.42737553
5.12723685466559e-10	0.6315458	0.0012050503	0.74274695	-0.76494807	-0.50645876	0.39783454
5.20185436242874e-10	0.6523578	-0.07468051	0.71749204	-0.7541883	-0.5463755	0.36412483
5.275331683342836e-10	0.66965425	-0.1437943	0.687184	-0.7435562	-0.58301735	0.32725307
5.349167697678215e-10	0.6850532	-0.20608173	0.6519016	-0.7327073	-0.61707914	0.2866785
5.424293418931182e-10	0.7000536	-0.2606759	0.6117493	-0.7211832	-0.6489328	0.24200507
5.500026563085664e-10	0.71587443	-0.30548996	0.56773	-0.7085809	-0.67829776	0.19385841
5.574833022759216e-10	0.7333741	-0.33861107	0.52159864	-0.694582	-0.7047409	0.1436677
5.650295305717347e-10	0.7537833	-0.359868	0.4732808	-0.6782883	-0.7289811	0.09084816
5.725313034563756e-10	0.7772468	-0.36809793	0.4243856	-0.6593438	-0.75077736	0.036553208
5.79847411394413e-10	0.80310065	-0.36309004	0.3767705	-0.6377031	-0.7698951	-0.017886467
5.870997276812841e-10	0.83104265	-0.34495354	0.33052832	-0.6126698	-0.7867467	-0.073276415
5.943814434992054e-10	0.8603339	-0.31329983	0.28596258	-0.58343935	-0.80140847	-0.13049531
6.017531337418267e-10	0.8896716	-0.26759803	0.24368948	-0.54911906	-0.8135633	-0.19042341
6.090679127637167e-10	0.91652364	-0.20916466	0.20550756	-0.50980973	-0.8222419	-0.2523842
6.164043404938102e-10	0.9390234	-0.13851133	0.17189233	-0.46463865	-0.8263962	-0.3176266
6.237253758096394e-10	0.954879	-0.057637766	0.14386533	-0.41352987	-0.82423353	-0.38648075
6.310894023211148e-10	0.9622235	0.031849045	0.12197952	-0.35613096	-0.8131194	-0.4601885
6.385328909306853e-10	0.959381	0.12765405	0.106885165	-0.29281613	-0.78908277	-0.539817
6.46085756104861e-10	0.94515806	0.22689292	0.09919509	-0.22525293	-0.7463633	-0.626122
6.53735438426778e-10	0.9192525	0.32571322	0.09938637	-0.15788822	-0.67736423	-0.71840894
6.614666664450726e-10	0.88249403	0.42013362	0.107591085	-0.09932353	-0.5729729	-0.81347764
6.693321909264779e-10	0.836388	0.50721645	0.12373461	-0.064168125	-0.423042	-0.90381384
6.772461502911153e-10	0.78412575	0.5830887	0.14714357	-0.075212404	-0.22569084	-0.97128975
6.851847306306714e-10	0.72919285	0.64570993	0.17683402	-0.15631706	0.0049085245	-0.9876784
6.933072950721898e-10	0.673939	0.69511396	0.21242699	-0.32020137	0.23367673	-0.9179782
7.00915215445734e-10	0.62594676	0.7280992	0.2493726	-0.52169544	0.38988858	-0.7585548
7.087161473091904e-10	0.5828585	0.74931145	0.28970072	-0.7203284	0.4580269	-0.52027345
7.167852771466337e-10	0.5466082	0.7589594	0.33281684	-0.8640124	0.43918273	-0.24445535
7.247275993398948e-10	0.5202856	0.7575263	0.37552065	-0.9278733	0.37153935	0.007246528
7.330100487179896e-10	0.5031765	0.74581647	0.41923356	-0.93019915	0.2924358	0.2197384
7.415259810887208e-10	0.496388	0.7241734	0.46224576	-0.8968807	0.22990027	0.3769132
7.50137943359183e-10	0.49984145	0.6934962	0.50276154	-0.85733867	0.1934956	0.47660935
7.583909998445323e-10	0.5116795	0.65665317	0.537962	-0.83300483	0.1752367	0.52459
7.665428084246664e-10	0.53013635	0.61379683	0.56857884	-0.8286094	0.15736195	0.53706187
7.743366453068596e-10	0.5526337	0.5674069	0.59347945	-0.8391551	0.12719578	0.5285132
7.81559676711326e-10	0.5764749	0.52022624	0.6123828	-0.8541641	0.082635224	0.5129843
7.886199225497142e-10	0.60148317	0.47077364	0.62672627	-0.86660254	0.02524281	0.49787897
7.956678409746919e-10	0.6271759	0.41875365	0.6367904	-0.87246233	-0.04031717	0.48655528
8.02577663049944e-10	0.6522722	0.36589313	0.6424246	-0.87072456	-0.10666739	0.4797097
8.0945784288024e-10	0.67653006	0.312228	0.6438331	-0.86283505	-0.17027417	0.47571933
8.163658587319417e-10	0.6996783	0.25819343	0.64106125	-0.850991	-0.22934908	0.47231084
8.231246823163393e-10	0.7208665	0.20608936	0.63438785	-0.8377322	-0.28218696	0.46738017
8.296735319827028e-10	0.7399038	0.15720099	0.624337	-0.8246782	-0.3295378	0.45949903
8.361503896514815e-10	0.7573098	0.11122971	0.6111272	-0.81214786	-0.37380975	0.44773698
8.426511401825675e-10	0.77348846	0.06827033	0.59484786	-0.79995555	-0.41667533	0.43154073
8.492304657347778e-10	0.7887604	0.02881347	0.57559127	-0.78769076	-0.4590159	0.41067663
8.559148544952926e-10	0.8034147	-0.0063852733	0.55351937	-0.77491105	-0.50101167	0.3851971
8.627456620188519e-10	0.817795	-0.036560323	0.5287701	-0.76123035	-0.5424938	0.35521993
8.697038843210673e-10	0.83211297	-0.060632493	0.5017562	-0.7465637	-0.58265966	0.32116485
8.76738360249002e-10	0.8464695	-0.07757852	0.47312373	-0.73108053	-0.6205313	0.2836287
8.836312265112085e-10	0.8605218	-0.0865638	0.4443147	-0.7154176	-0.65458834	0.24415101
8.904418633708384e-10	0.8743504	-0.08776927	0.4156485	-0.69953656	-0.68512356	0.20269224
8.972916318303471e-10	0.8880111	-0.081170015	0.38715023	-0.6830784	-0.712744	0.15859003
9.042067772271821e-10	0.9012053	-0.06660114	0.35925996	-0.66569775	-0.7376293	0.111604735
9.111105987651218e-10	0.913296	-0.044350937	0.33283234	-0.64711976	-0.7596528	0.06218779
9.17924444121911e-10	0.9235946	-0.015247187	0.30864042	-0.62698567	-0.77878225	0.010922575
9.247670698723842e-10	0.93167377	0.020516342	0.2867075	-0.6042789	-0.7954628	-0.043071337
9.316096641838125e-10	0.93685496	0.062023688	0.26756775	-0.57835877	-0.80955076	-0.09960467
9.382993990737113e-10	0.9385694	0.107198484	0.25191307	-0.54924226	-0.8205817	-0.1573842
9.449052729436037e-10	0.9365922	0.15519397	0.23970166	-0.516253	-0.8283545	-0.21698669
9.51496678023786e-10	0.9307259	0.20527929	0.23093764	-0.47868097	-0.83227205	-0.27916983
9.581407402294687e-10	0.9208028	0.2567479	0.22569004	-0.43580055	-0.8311958	-0.34485883
9.649045148377915e-10	0.906704	0.30886042	0.22409329	-0.386924	-0.82320553	-0.41517162
9.7176342230182e-10	0.8886621	0.3601088	0.22628856	-0.33234233	-0.80552137	-0.49036568
9.786772222013447e-10	0.86726314	0.40890598	0.23224774	-0.27329847	-0.774493	-0.570338
9.85577175602652e-10	0.8434808	0.45366755	0.2417132	-0.21260114	-0.7258203	-0.65409887
9.925019065374208e-10	0.81809896	0.4937618	0.25443304	-0.1540333	-0.6536388	-0.7408931
9.994794490739006e-10	0.7919892	0.5286152	0.27012777	-0.10441934	-0.5510392	-0.8278642
1.0065403600989232e-09	0.7660465	0.557782	0.288502	-0.07496089	-0.41122153	-0.9083899
1.0137400106687959e-09	0.7410932	0.5809768	0.30931067	-0.082315296	-0.23029298	-0.96955335
1.0210397613915434e-09	0.7182529	0.5977221	0.33199477	-0.1459763	-0.017493837	-0.98900384
1.0283859799775564e-09	0.69852686	0.6078364	0.35586417	-0.2761832	0.19813074	-0.9402474
1.0357579922731902e-09	0.68257856	0.6114682	0.38029727	-0.4588432	0.37275606	-0.8062158
1.0432145736386288e-09	0.67071664	0.6088713	0.4049374	-0.65387017	0.46931046	-0.59299976
1.0508667773145685e-09	0.66314363	0.6001022	0.42958573	-0.8133806	0.47795662	-0.33091962
1.0585839300780013e-09	0.660142	0.5855025	0.4532483	-0.9039699	0.42152017	-0.069088355
1.0663154472884696e-09	0.6615193	0.5656149	0.4752545	-0.9271767	0.33905143	0.1581344
1.074140430347949e-09	0.666927	0.54069334	0.49534288	-0.90359807	0.2610044	0.3391704
1.0821345812726573e-09	0.6760188	0.5108767	0.51318944	-0.85696304	0.20418918	0.4729703
1.0902372510078217e-09	0.68820363	0.47685602	0.5281651	-0.80938154	0.17290914	0.5611962
1.0982583198867677e-09	0.70247287	0.44015786	0.5396276	-0.7771729	0.15919843	0.6088128
1.1062406646127935e-09	0.7181454	0.40145382	0.5475221	-0.7658195	0.14780562	0.6257912
1.1139848222328313e-09	0.73414576	0.36263335	0.55173045	-0.77180916	0.12557466	0.6232146
1.1212047170335402e-09	0.7493197	0.32605085	0.55257213	-0.78528833	0.08859302	0.6125906
1.128249644607273e-09	0.76404035	0.29067782	0.55056655	-0.7984754	0.037589274	0.60065824
1.1351940901035356e-09	0.77824056	0.25677228	0.54594535	-0.8066012	-0.022976514	0.59046435
1.1420059703864444e-09	0.791721	0.22505625	0.538991	-0.80802023	-0.087153986	0.582533
1.1488058597103762e-09	0.8046465	0.19550204	0.5298248	-0.8034767	-0.15163669	0.5756172
1.155668379327125e-09	0.8171114	0.16836666	0.51852894	-0.79463696	-0.21451506	0.5678669
1.1623408256575726e-09	0.8286635	0.14506745	0.5058071	-0.7838453	-0.2726633	0.5578169
1.1688888844878224e-09	0.83946323	0.12557636	0.49190152	-0.7725171	-0.32709092	0.5441441
1.1754370534445527e-09	0.8497388	0.109776706	0.4768493	-0.76115763	-0.37954494	0.5257295
1.1820754199808532e-09	0.85961604	0.097818434	0.46070325	-0.7497493	-0.43127483	0.50165164
1.1888416487063943e-09	0.8690953	0.09006309	0.44363838	-0.73799366	-0.48272437	0.47130555
1.1956549906937392e-09	0.87797654	0.08692442	0.42616433	-0.7256206	-0.533015	0.43496978
1.2024546954656146e-09	0.88607144	0.08851988	0.40877026	-0.7123456	-0.58113945	0.39334413
1.209355245987687e-09	0.8933534	0.094921164	0.39150614	-0.6976286	-0.62716585	0.34624255
1.2163775082229645e-09	0.8996076	0.106220126	0.37468612	-0.68115896	-0.670418	0.29402798
1.2232707189908775e-09	0.9043986	0.12173539	0.3592355	-0.66337776	-0.7088655	0.23931287
1.2301318887275079e-09	0.90762234	0.14115743	0.34519666	-0.64393985	-0.7429135	0.18212503
1.237065586070365e-09	0.9091038	0.16433764	0.33263695	-0.62233925	-0.77294207	0.12215896
1.2440725788447237e-09	0.90860397	0.19080378	0.32184577	-0.5982569	-0.7988273	0.059813555
1.250940290018145e-09	0.90603954	0.2190603	0.3133145	-0.57215226	-0.81989735	-0.002696856
1.2577787281830588e-09	0.9013903	0.24878332	0.30697182	-0.543347	-0.8366611	-0.06622493
1.2646793807477348e-09	0.89460576	0.27965355	0.30283934	-0.51102185	-0.8492055	-0.1317505
1.2716725278026744e-09	0.8857046	0.31107852	0.30101526	-0.47443938	-0.8571002	-0.19995739
1.2786132565568287e-09	0.87506545	0.3416706	0.30154243	-0.43380496	-0.8594508	-0.26998678
1.2855513480335807e-09	0.8629296	0.37096632	0.30432838	-0.38839653	-0.8551513	-0.34296933
1.2925463432892033e-09	0.84954715	0.39857292	0.30930325	-0.33746192	-0.8422018	-0.42023635
1.2996693505793731e-09	0.83517784	0.42412987	0.31643075	-0.28041515	-0.8172504	-0.50325584
1.3068574036625014e-09	0.82040733	0.44683036	0.32550925	-0.21861133	-0.77589977	-0.59160435
1.3141206056149421e-09	0.8057167	0.4662413	0.3363398	-0.15459707	-0.71199703	-0.6848122
1.321492084799005e-09	0.791553	0.48205084	0.34872797	-0.093691565	-0.6173054	-0.7809901
1.3288798812206245e-09	0.77857596	0.49381077	0.36222145	-0.046799183	-0.4847018	-0.8732775
1.336324474426695e-09	0.7671302	0.501479	0.37655947	-0.029637512	-0.30781454	-0.9507948
1.3438837095705496e-09	0.7575012	0.50502074	0.39151493	-0.063999385	-0.08761837	-0.99382806
1.3516352300837776e-09	0.74994004	0.5043525	0.40688655	-0.1721673	0.1572128	-0.97204167
1.359379351481815e-09	0.74484336	0.499555	0.4219078	-0.35153154	0.3736716	-0.8577833
1.3668911179819856e-09	0.7422576	0.49122277	0.4358247	-0.5573391	0.5065925	-0.65704495
1.3747511989144135e-09	0.7419526	0.47895914	0.4493734	-0.7468467	0.54081887	-0.38594717
1.3826481075090484e-09	0.7439429	0.46338138	0.4616413	-0.86662006	0.48766032	-0.10339241
1.3905140958759222e-09	0.7479681	0.44506043	0.47226048	-0.908291	0.39123595	0.14698192
1.398482947051027e-09	0.75382507	0.42413568	0.4811709	-0.8903805	0.28955472	0.350763
1.4066254874759666e-09	0.76131797	0.4008484	0.4881791	-0.8372199	0.2070035	0.50588095
1.4148180021287754e-09	0.7700385	0.3760774	0.49296802	-0.77376044	0.15524495	0.6140447
1.4229191177740902e-09	0.77948725	0.3508865	0.49540812	-0.720091	0.13140002	0.6812999
1.430955192645184e-09	0.78936696	0.325843	0.49556893	-0.6868237	0.122495785	0.7163659
1.4388651923617242e-09	0.7993275	0.30174774	0.4935792	-0.67616856	0.113021635	0.72785395
1.4462012751741439e-09	0.8085867	0.28040722	0.48991624	-0.6818153	0.09259616	0.7253771
1.4531922186580773e-09	0.81729585	0.2613943	0.48490673	-0.6943476	0.05795978	0.7170005
1.4601108091681189e-09	0.8257035	0.24421358	0.47861776	-0.707234	0.009482557	0.7066262
1.466891990939428e-09	0.83366036	0.22926494	0.47131163	-0.7161458	-0.048404302	0.6960319
1.4736089091193204e-09	0.8411982	0.21656936	0.4631165	-0.7196723	-0.11170104	0.6851057
1.480374594839025e-09	0.8483844	0.20613118	0.45406947	-0.7181524	-0.17781235	0.6726884
1.487137301438513e-09	0.8551004	0.1982344	0.44441596	-0.71285546	-0.24382341	0.65748966
1.4937726047496832e-09	0.8611764	0.19307806	0.43453795	-0.7054527	-0.307348	0.6385455
1.5003970369433023e-09	0.8666724	0.19056483	0.4244626	-0.69699895	-0.3691757	0.61455613
1.5071170896949578e-09	0.87159646	0.19072695	0.41421717	-0.68794906	-0.43022078	0.58422303
1.5139945076094736e-09	0.87587816	0.19368556	0.4039077	-0.6783224	-0.49084336	0.54641294
1.5208655873022281e-09	0.87930715	0.19936666	0.39398557	-0.66809946	-0.54918075	0.5016445
1.5276840086742771e-09	0.88178915	0.20754293	0.38470134	-0.656921	-0.6042596	0.4505114
1.5345799179298551e-09	0.88328916	0.21817128	0.37605798	-0.6440444	-0.6563564	0.39254
1.5416346288159786e-09	0.88370377	0.23122063	0.36815947	-0.6286777	-0.7051081	0.32757658
1.548728672419964e-09	0.88292825	0.24622396	0.36132905	-0.61044276	-0.74882156	0.25757077
1.555794993468284e-09	0.8809446	0.26266283	0.35575742	-0.58901316	-0.7866053	0.18436635
1.5629455788724354e-09	0.87771845	0.28039533	0.35146683	-0.5635875	-0.81873447	0.10796338
1.5701636957125982e-09	0.87327087	0.29896465	0.34857538	-0.5337741	-0.84484744	0.029559245
1.5772940078252515e-09	0.8677964	0.31751758	0.34716934	-0.5000135	-0.8643935	-0.048334576
1.5844206131569295e-09	0.8613853	0.33583048	0.3472002	-0.461864	-0.8776611	-0.12618904
1.5916328000690883e-09	0.85411507	0.3537047	0.34865528	-0.41868833	-0.88444746	-0.20499212
1.598992310270174e-09	0.8461007	0.37085238	0.35154334	-0.36979923	-0.88381195	-0.28592774
1.60642094341456e-09	0.8376495	0.38666698	0.35578755	-0.31538522	-0.87406313	-0.36911368
1.6138899377005087e-09	0.8290547	0.4007274	0.36126065	-0.2555195	-0.85266405	-0.45545435
1.6214709967150028e-09	0.8205098	0.41284114	0.36788115	-0.18988934	-0.81524324	-0.54693806
1.6290726167092565e-09	0.81239426	0.42260072	0.37540215	-0.12075223	-0.7562623	-0.6429223
1.6367482414318188e-09	0.80491173	0.42989385	0.38367802	-0.05160454	-0.6673254	-0.74290204
1.6445478124309933e-09	0.79826397	0.43460077	0.39255622	0.009408001	-0.537442	-0.84318554
1.6525165596387609e-09	0.79265153	0.43659666	0.40186614	0.04612494	-0.3548358	-0.9337152
1.660471867663327e-09	0.7883673	0.43582255	0.41115156	0.03275945	-0.12100248	-0.99198973
1.6683392358382186e-09	0.7854948	0.4324652	0.42008963	-0.05535748	0.14273149	-0.9879885
1.676112587766771e-09	0.7840016	0.4267877	0.42846838	-0.2244164	0.38932174	-0.892944
