# t (s)	mx ()	my ()	mz ()	m.region1x ()	m.region1y ()	m.region1z ()
0	0	1	0	0	1	0
1.023e-12	-0.024339229	0.9995734	0.015730157	-0.028216826	0.99945587	0.017082645
2.047e-12	-0.048082992	0.9983187	0.031552363	-0.055770967	0.99785554	0.034263078
4.095e-12	-0.09362814	0.9934863	0.063366905	-0.10868054	0.99169475	0.06877467
8.191e-12	-0.17651626	0.9756423	0.12728629	-0.20505744	0.9690002	0.13779983
1.5452051809612366e-11	-0.29535955	0.923578	0.23948947	-0.34327477	0.9033641	0.25706255
2.2646169203333023e-11	-0.37830946	0.8557077	0.34646392	-0.44043767	0.81914407	0.3673741
2.996550012321247e-11	-0.4305809	0.77850085	0.4487136	-0.5042127	0.725127	0.46886143
3.749763832529499e-11	-0.45572504	0.6961632	0.54553103	-0.54057664	0.62683123	0.56090766
4.529154630906561e-11	-0.45716962	0.6111301	0.6358662	-0.5550784	0.52734506	0.64296895
5.335354379226476e-11	-0.438584	0.5245397	0.7182976	-0.552884	0.42819002	0.71443486
6.165273758782139e-11	-0.40410712	0.43650508	0.7911991	-0.53883123	0.32986307	0.77466047
7.016676497750735e-11	-0.35808837	0.34607896	0.85318273	-0.5172671	0.23187357	0.8232126
7.891286911624244e-11	-0.30459902	0.25147185	0.90310144	-0.49179792	0.13293336	0.8597529
8.793980800846035e-11	-0.24727547	0.1506235	0.9396592	-0.46526384	0.031432603	0.88367456
9.729342589778146e-11	-0.18944708	0.042008877	0.96108353	-0.439818	-0.0739455	0.89385825
1.0700473308896555e-10	-0.13393085	-0.07477262	0.9651961	-0.41674984	-0.18391296	0.8887461
1.1673670175999538e-10	-0.08408475	-0.19422936	0.95055807	-0.39672354	-0.29441315	0.86761457
1.2563159865863588e-10	-0.04287662	-0.30322692	0.92082673	-0.37953925	-0.3950045	0.83440286
1.3416143076445433e-10	-0.005173945	-0.4050783	0.8779912	-0.36165842	-0.49027285	0.79034644
1.4263637945986043e-10	0.03363992	-0.50102216	0.8221344	-0.33946565	-0.5828042	0.7351438
1.5117095343159977e-10	0.07803075	-0.5893656	0.7533513	-0.30893257	-0.6726161	0.6685998
1.5954630321750244e-10	0.13098371	-0.66459924	0.67473966	-0.26690418	-0.7557946	0.5932866
1.6770424720829538e-10	0.19531181	-0.72305065	0.58894527	-0.21044034	-0.82975125	0.51115113
1.7574163398086272e-10	0.27380353	-0.76166785	0.49717954	-0.13614738	-0.89246774	0.42261183
1.8358940063168343e-10	0.3660766	-0.77581316	0.40266767	-0.042854805	-0.9394442	0.32985315
1.91367345860351e-10	0.4716571	-0.7608499	0.3067233	0.07145202	-0.96607834	0.23299867
1.991233059841819e-10	0.58687496	-0.71106935	0.21194094	0.20671317	-0.9652328	0.13317688
2.067263239803772e-10	0.7021506	-0.62347883	0.1236142	0.35665628	-0.9290567	0.034381345
2.1411735556839694e-10	0.80648136	-0.4991563	0.046170034	0.51201576	-0.85158074	-0.059668396
2.2147098278291218e-10	0.89103657	-0.3386945	-0.018394163	0.6647946	-0.7256793	-0.14747564
2.2888421043955047e-10	0.94489455	-0.14644647	-0.066692136	0.8009533	-0.54551655	-0.22514202
2.362498455959069e-10	0.95769775	0.063050784	-0.09446381	0.8988964	-0.31624994	-0.28540653
2.43526581406488e-10	0.9261235	0.2727421	-0.099875994	0.939722	-0.05245674	-0.32187885
2.5077191596266505e-10	0.85310596	0.46803287	-0.082938924	0.9111708	0.22541949	-0.32958534
2.580219144569286e-10	0.74678594	0.6359574	-0.044875264	0.8104039	0.49022645	-0.30503646
2.6526778512666447e-10	0.61986446	0.76696146	0.01152987	0.64847916	0.71308875	-0.24814613
2.726063968708474e-10	0.4846416	0.8584447	0.08344794	0.44565833	0.87525856	-0.16171145
2.801328877427321e-10	0.35277176	0.91100746	0.16799055	0.22746007	0.96761	-0.051026598
2.879307506940672e-10	0.23469853	0.9276205	0.2620804	0.01958106	0.99173325	0.07656753
2.960481647062881e-10	0.13921237	0.9129754	0.36211738	-0.15696578	0.9584557	0.21237215
3.0428292089489216e-10	0.073699415	0.87409383	0.4615106	-0.2871609	0.88628274	0.34446314
3.127607689819549e-10	0.038085714	0.81672025	0.558159	-0.37289888	0.7911132	0.46877477
3.2163706413060665e-10	0.03122854	0.7437025	0.650355	-0.41975996	0.6827742	0.58331394
3.3105308428234265e-10	0.05141301	0.6555278	0.73571956	-0.43422338	0.56632686	0.68650734
3.408388817063186e-10	0.09421603	0.5539847	0.80882555	-0.42376783	0.44673675	0.7741919
3.509203898316227e-10	0.15276942	0.4395182	0.8657004	-0.39730206	0.32477033	0.8445106
3.6098052092066124e-10	0.21764022	0.31621554	0.90230966	-0.3639339	0.20266645	0.8950503
3.7094442484304266e-10	0.28168923	0.18726104	0.91768336	-0.33037362	0.07987472	0.92595834
3.8099346360937526e-10	0.3417352	0.054151542	0.91167647	-0.30013582	-0.046394322	0.9376573
3.9125288720120045e-10	0.3966685	-0.079256736	0.88359433	-0.27493814	-0.17722231	0.9291097
4.0129054246108963e-10	0.4454698	-0.20073697	0.83591217	-0.2552741	-0.30550104	0.90053463
4.1110267726905763e-10	0.49191052	-0.30416095	0.7720754	-0.23791525	-0.42901114	0.8534634
4.2102128060788084e-10	0.54216856	-0.386677	0.6931584	-0.2171681	-0.54945433	0.7873224
4.3064251357872866e-10	0.59811896	-0.43941492	0.60627514	-0.18755184	-0.65932745	0.70646405
4.398819524436343e-10	0.6605206	-0.45933282	0.51704043	-0.14364126	-0.75527126	0.6147683
4.489881411033931e-10	0.7295349	-0.4448468	0.42760336	-0.079276636	-0.83655775	0.51260126
4.57935963717501e-10	0.80066913	-0.39422998	0.34261334	0.009432653	-0.8978898	0.40270072
4.668948519424704e-10	0.86811554	-0.3061763	0.2650299	0.12658817	-0.93282807	0.2854919
4.75674706297815e-10	0.921482	-0.18571623	0.2008757	0.26853475	-0.9310115	0.16646291
4.844853550546152e-10	0.95285696	-0.037256315	0.15258849	0.43249276	-0.8809292	0.046640337
4.932895508333143e-10	0.9544606	0.12785687	0.12387141	0.60529405	-0.7699856	-0.06823359
5.020369322294229e-10	0.92339575	0.2946416	0.11669936	0.7650526	-0.59043163	-0.17042497
5.108728521485007e-10	0.86145324	0.45118618	0.13130462	0.88562435	-0.33903387	-0.25222623
5.19828495474578e-10	0.77548146	0.58484876	0.16679141	0.93386173	-0.028766213	-0.30213094
5.287832124535992e-10	0.67802095	0.68513936	0.21965659	0.88378215	0.30117032	-0.30852312
5.378330049966143e-10	0.580621	0.74982905	0.28611213	0.7316807	0.6040389	-0.26499295
5.470062179870444e-10	0.4941218	0.77974576	0.3616463	0.50208133	0.8315213	-0.1721931
5.563295394120411e-10	0.42655087	0.77843165	0.44164672	0.24221388	0.95568895	-0.03992737
5.659254329889403e-10	0.3821696	0.75011396	0.52249855	-0.00019079067	0.9784591	0.11717045
5.75878139026094e-10	0.36293513	0.69825804	0.60034555	-0.19071689	0.921879	0.2827311
5.860485834350674e-10	0.3679822	0.6270075	0.66981375	-0.31390616	0.8173755	0.4397859
5.964285402497373e-10	0.39313763	0.5394984	0.72713614	-0.3764657	0.69031906	0.5792957
6.072418941886103e-10	0.43372738	0.436263	0.7697795	-0.3931568	0.5518123	0.69926775
6.186903270647386e-10	0.48500654	0.31810707	0.7940564	-0.37773588	0.40433568	0.7978776
6.308197237388114e-10	0.5416244	0.18959221	0.79540795	-0.3432332	0.24731483	0.87128353
6.430247589228902e-10	0.5966986	0.06558991	0.772018	-0.3037641	0.08694441	0.9134432
6.548130449134366e-10	0.6473592	-0.039619233	0.7280512	-0.26904878	-0.070512585	0.92398006
6.666444925807954e-10	0.6973704	-0.121426195	0.666556	-0.24000785	-0.22931717	0.9046029
6.783009652135171e-10	0.74789983	-0.17048964	0.5939393	-0.21437535	-0.38311574	0.856457
6.892871526477112e-10	0.79708517	-0.18224181	0.51995385	-0.1864883	-0.5216143	0.7856888
7.000111147618856e-10	0.844391	-0.15820551	0.44803748	-0.1472106	-0.6463036	0.69459885
7.107766653124434e-10	0.88627917	-0.098586805	0.3817327	-0.08626263	-0.7554303	0.58378994
7.212160879851485e-10	0.9150594	-0.010251732	0.32819104	0.0018774372	-0.8383854	0.46088713
7.313853480503846e-10	0.92573357	0.097679675	0.29036587	0.12064241	-0.8873878	0.3301476
7.415115717351964e-10	0.9152906	0.21662797	0.26963598	0.27162832	-0.8915832	0.19363667
7.516529240974744e-10	0.8832347	0.3355842	0.26713973	0.44839945	-0.8349822	0.056593347
7.618287114492228e-10	0.83292377	0.44343963	0.2825867	0.6335037	-0.70087147	-0.07288883
7.71873983234167e-10	0.77221423	0.5298952	0.3134328	0.79399693	-0.48314294	-0.18177272
7.818556531385525e-10	0.7091774	0.5910626	0.35621026	0.8931126	-0.18911451	-0.25795126
7.914569058901288e-10	0.65317506	0.62518513	0.40514058	0.8971133	0.1390214	-0.28818455
8.008794895793593e-10	0.6078458	0.6360364	0.45702422	0.79735214	0.4578997	-0.26763287
8.102552078846e-10	0.5753084	0.6267706	0.50916135	0.60804766	0.7198605	-0.19587836
8.200672340312067e-10	0.5559451	0.5986345	0.5610814	0.35685652	0.89336663	-0.07424041
8.312713028572904e-10	0.5514733	0.54763925	0.6134563	0.07597667	0.9546378	0.10019589
8.422457959658803e-10	0.56258506	0.48268825	0.65448684	-0.13642299	0.9048311	0.28003937
8.53020103066703e-10	0.5846221	0.4088891	0.68263024	-0.2670057	0.7955306	0.44436103
8.64172044296434e-10	0.6149284	0.32676047	0.6976784	-0.33169463	0.6552527	0.59018266
8.761223060247524e-10	0.6518158	0.23813477	0.6973729	-0.34561542	0.4956029	0.7144426
8.884332515947903e-10	0.6914511	0.15321255	0.67998445	-0.32544807	0.32919085	0.8073354
9.011592489029404e-10	0.732353	0.08014454	0.6460497	-0.28853166	0.15629123	0.8667766
9.144723431683837e-10	0.7742051	0.027869066	0.59729636	-0.24671407	-0.025636364	0.88996714
9.281746887327348e-10	0.81516343	0.006817704	0.53895986	-0.20667215	-0.2119513	0.8727986
9.413148955107494e-10	0.8498173	0.021285452	0.48192194	-0.16890055	-0.38500303	0.8182743
9.541682674669291e-10	0.87504435	0.06735206	0.4315696	-0.12364657	-0.542405	0.73105776
9.666829187505495e-10	0.88658667	0.13727966	0.39318138	-0.059259333	-0.6764099	0.6174229
9.787967551771801e-10	0.8820727	0.22000885	0.36988452	0.034482792	-0.7779195	0.48502707
9.904746746611457e-10	0.8623574	0.30393168	0.36229554	0.16266137	-0.8361495	0.34198916
1.001982856911424e-09	0.8303699	0.381195	0.3692607	0.32684302	-0.83780086	0.1928978
1.0132451790552438e-09	0.7914322	0.44411078	0.388605	0.51461476	-0.7651399	0.047656897
1.0243282987770716e-09	0.7511419	0.4889972	0.4173113	0.70180696	-0.6028278	-0.08342099
1.0347360311657407e-09	0.7161615	0.5138166	0.45024928	0.8441294	-0.36089256	-0.18258113
1.044479544421682e-09	0.68901587	0.5217451	0.48381484	0.9099184	-0.067251794	-0.24095048
1.0538708886063308e-09	0.6696991	0.5162138	0.5165049	0.8825661	0.24552967	-0.2540605
1.0630671613452266e-09	0.65800357	0.4995355	0.54700714	0.7610594	0.534182	-0.21887404
1.0724459625147516e-09	0.65342456	0.47264573	0.5749474	0.5605552	0.7622955	-0.13468722
1.0827815899422288e-09	0.6562907	0.4336952	0.6003842	0.30281508	0.90122175	0.0022628915
1.0937108651806519e-09	0.6669412	0.38492298	0.6196513	0.055409096	0.9230825	0.17316934
1.1042500555098075e-09	0.682883	0.33384553	0.6298152	-0.118671276	0.8576813	0.33924195
1.1149613993018131e-09	0.70297647	0.28140602	0.6312934	-0.22412115	0.7441843	0.49258116
1.1260689827803435e-09	0.726243	0.2302601	0.6236626	-0.2714904	0.6052894	0.62645566
1.1374881097024747e-09	0.7512468	0.18505529	0.60707605	-0.27555856	0.4551587	0.7343826
1.1492158985335467e-09	0.7767799	0.15020847	0.58257926	-0.25266287	0.29870042	0.81373423
1.1612316718678693e-09	0.8015124	0.12986313	0.55216014	-0.21633491	0.13705945	0.8626421
1.1735695436037322e-09	0.8238627	0.12716356	0.5185116	-0.17580864	-0.029792951	0.87939686
1.1861313244180699e-09	0.84148014	0.14354408	0.48533678	-0.13574186	-0.19844212	0.8622066
1.1988845219393561e-09	0.8518339	0.17777213	0.45639288	-0.0946867	-0.36397025	0.8104606
1.2117956324465493e-09	0.8526914	0.22585438	0.43510374	-0.04511948	-0.519114	0.72508043
1.2247421069921438e-09	0.8431237	0.28105026	0.4240169	0.024740536	-0.6533042	0.609918
1.2377167575581316e-09	0.8241806	0.33595	0.42403972	0.12837002	-0.7540361	0.47032848
1.250676907068589e-09	0.7988802	0.3835053	0.43457258	0.27519462	-0.80291104	0.3140813
1.2636129427084832e-09	0.77142346	0.41857418	0.4536787	0.46395817	-0.7746817	0.151197
1.2755869656551297e-09	0.74778855	0.437483	0.47661245	0.65846527	-0.6536832	0.0062825335
1.2867363734892364e-09	0.7298443	0.4428376	0.50021607	0.8224911	-0.44220775	-0.10942134
1.2970488085612536e-09	0.71801263	0.43777952	0.5221373	0.91785276	-0.16460711	-0.18491244
1.3065853536650196e-09	0.7115698	0.42542535	0.54113144	0.92300904	0.13728	-0.21446471
1.3156612089062025e-09	0.7094197	0.40780365	0.55708283	0.8379257	0.4242278	-0.19778174
1.3248652126469558e-09	0.71093637	0.38521186	0.5703606	0.6719071	0.6681949	-0.13406229
1.3350927704699382e-09	0.7164946	0.35609317	0.58096427	0.43585935	0.84242475	-0.016332466
1.34545106565677e-09	0.7255971	0.32426977	0.5867187	0.2007167	0.90556395	0.13402581
1.3557140497444332e-09	0.73725927	0.29259673	0.58726096	0.015214258	0.878834	0.2919778
1.3658648390344816e-09	0.7505463	0.2632445	0.5828875	-0.107027195	0.79798895	0.4404869
1.3759720545757377e-09	0.7646973	0.2378864	0.5741456	-0.1732628	0.6896456	0.57130873
1.3861738380563193e-09	0.7791333	0.21786262	0.56163836	-0.19706939	0.5674953	0.6818385
1.3965977532968553e-09	0.79326147	0.20451598	0.54606783	-0.19119762	0.43678814	0.7710881
1.407195676510831e-09	0.80617595	0.19918418	0.52860796	-0.1667282	0.3004548	0.8372188
1.4179780666663298e-09	0.81697893	0.20253618	0.51057994	-0.13275681	0.15894768	0.8793023
1.428976232705885e-09	0.82473725	0.21457975	0.4934032	-0.09571942	0.012480984	0.89624786
1.4402234817760825e-09	0.8285361	0.23456888	0.47853857	-0.05910061	-0.13761894	0.88662714
1.4516955920337967e-09	0.82765085	0.26078057	0.46742207	-0.023057263	-0.28758353	0.84923583
1.4633581068113724e-09	0.8218509	0.29060936	0.46117264	0.016275901	-0.43179852	0.78393257
1.47518524629678e-09	0.8115815	0.3209318	0.4603973	0.06666828	-0.5631403	0.6920116
1.4872088657594158e-09	0.7979284	0.34866583	0.46513134	0.13887013	-0.67293745	0.5758387
1.4994280131515349e-09	0.78257275	0.37094814	0.4748384	0.24386917	-0.7483587	0.439645
1.5117730502809777e-09	0.7675921	0.38554168	0.48834407	0.38776556	-0.7706943	0.29060334
1.5243414812755252e-09	0.7547944	0.3913688	0.5042288	0.5676665	-0.714641	0.13686368
1.536658930477845e-09	0.74597126	0.38842797	0.52013993	0.75250757	-0.558563	-0.0023959728
1.5478137986461808e-09	0.74167025	0.3792014	0.53348255	0.8879591	-0.3204121	-0.103413135
1.5579280173129601e-09	0.74078226	0.36641306	0.5438139	0.94409245	-0.036777224	-0.15961485
1.5673102613098917e-09	0.7422819	0.35168186	0.55135566	0.91231376	0.2523205	-0.17021218
1.576557960522993e-09	0.7456482	0.33531323	0.5565271	0.7966122	0.5182419	-0.13541432
1.5864346052462205e-09	0.7509736	0.31679478	0.55934817	0.60385823	0.734969	-0.050629027
1.5974900320198547e-09	0.75862134	0.29617426	0.55910593	0.360193	0.8643402	0.08767812
1.6082745772576324e-09	0.7672998	0.27768958	0.5555444	0.15136743	0.88345695	0.24389867
1.6189661492331515e-09	0.77652144	0.26237872	0.5491499	0.0025416333	0.82964844	0.39880323
1.6294583909073248e-09	0.78557515	0.25138324	0.5406731	-0.08419701	0.7365016	0.5377913
1.6399515858743883e-09	0.79404014	0.24513017	0.5307308	-0.122413166	0.6229979	0.65719914
1.6507160945631923e-09	0.80151975	0.24401161	0.5198526	-0.12555805	0.49589932	0.75645274
1.6617402595720401e-09	0.80734986	0.2483454	0.5089271	-0.105087385	0.35911337	0.8327507
1.6730399163461492e-09	0.8109147	0.25795186	0.49889934	-0.07133904	0.21370499	0.88409466
1.6845640853346805e-09	0.8117077	0.2720206	0.49075472	-0.03272475	0.061317824	0.9083174
1.6964594164518713e-09	0.8094428	0.28945073	0.48524454	0.005999925	-0.09775445	0.9034207
1.7086560365747846e-09	0.8041539	0.3083968	0.48306185	0.043401547	-0.25817373	0.8671863
1.7212012378485758e-09	0.7962892	0.32684642	0.48452085	0.08359028	-0.41364527	0.7983353
1.733955496886497e-09	0.7868667	0.34248835	0.4894751	0.13544783	-0.55320466	0.6985844
1.7470291704665302e-09	0.77707064	0.35363516	0.49738932	0.21265703	-0.66582125	0.57041705
1.7604726838332606e-09	0.7682645	0.35896146	0.5073627	0.32939708	-0.73384243	0.41895908
1.7741389279236406e-09	0.7618138	0.3578545	0.5180301	0.49094662	-0.7305515	0.2551521
1.7876789578663717e-09	0.7585923	0.3509581	0.52777493	0.67966723	-0.6269251	0.09721141
1.7996411994769164e-09	0.75845855	0.34111428	0.5347836	0.83746207	-0.4327942	-0.023230657
1.810383233298717e-09	0.76027286	0.33027062	0.53929853	0.93168974	-0.17660291	-0.10095077
1.8201497073739447e-09	0.76319337	0.31954312	0.5417238	0.9450989	0.102533445	-0.13395096
1.8294791490267644e-09	0.7668147	0.30913344	0.5424795	0.87697875	0.37416697	-0.123453215
1.8389149984534044e-09	0.7710449	0.29898626	0.541719	0.7339209	0.610967	-0.06864896
1.849237487757091e-09	0.7760812	0.2889364	0.5392512	0.52700585	0.7871639	0.035352945
1.8602526290188604e-09	0.7816617	0.2801449	0.5349827	0.3043841	0.8663907	0.17898552
1.8710879976694817e-09	0.7870515	0.2741151	0.52950907	0.12802209	0.85406834	0.33152932
1.8819916708905834e-09	0.792012	0.27114958	0.5232034	0.010411795	0.78333753	0.47891226
1.8928197900594596e-09	0.7961068	0.2714744	0.5166841	-0.050825823	0.6810807	0.60885936
1.903827141932406e-09	0.7990814	0.2750231	0.51035434	-0.06937742	0.5601127	0.7190279
1.9150717944234724e-09	0.8006207	0.28156057	0.50474334	-0.05788558	0.42649078	0.806563
1.92675155900687e-09	0.8004701	0.29070297	0.50032365	-0.027554994	0.28025523	0.8698562
1.938675762468902e-09	0.79850584	0.30147102	0.4976605	0.011229472	0.1250369	0.90496194
1.950917521703418e-09	0.7948287	0.3128078	0.4970537	0.051397745	-0.03777312	0.9096244
1.9634580505206787e-09	0.78978896	0.3234402	0.4986183	0.08981749	-0.20330517	0.881483
1.9765193259770764e-09	0.7838665	0.33225125	0.5022868	0.1296727	-0.3668424	0.81793827
1.9897961444445494e-09	0.7779715	0.33791476	0.5075823	0.17894375	-0.5140561	0.72068053
2.003409142818432e-09	0.7729	0.33977753	0.5138798	0.2520005	-0.6328626	0.5924602
2.017253411501397e-09	0.7694501	0.33761606	0.5203048	0.36283737	-0.704064	0.4408941
2.0315425218052032e-09	0.7681231	0.33171704	0.52606255	0.521054	-0.70137	0.2738879
2.0451044312043783e-09	0.7690024	0.3236891	0.5300296	0.6991566	-0.5997658	0.11995459
2.0570022426333658e-09	0.771251	0.31567416	0.5319749	0.8470701	-0.4131571	0.0035968993
2.0676634150563474e-09	0.77411157	0.30845156	0.53240746	0.93573743	-0.16890833	-0.071618564
2.0774108589990323e-09	0.7771223	0.30229613	0.5317537	0.9494914	0.09863951	-0.10452784
2.086786513953354e-09	0.78012735	0.29709366	0.5302749	0.88593566	0.36185676	-0.0957879
2.0962448648818425e-09	0.7830837	0.2927796	0.5280726	0.7508109	0.59249157	-0.044458207
2.1067024347029573e-09	0.78612536	0.28930748	0.52499795	0.5515661	0.7682093	0.055569176
2.1178783909390868e-09	0.7890019	0.28731623	0.5212302	0.3355657	0.8499318	0.19522786
2.1287858568353247e-09	0.79131675	0.28723812	0.5173685	0.16507007	0.8417799	0.34329438
2.1398207812395805e-09	0.7930151	0.28904814	0.5135943	0.050339334	0.77562404	0.4878751
2.1511162101485767e-09	0.79393405	0.29268837	0.5101934	-0.010501298	0.6737582	0.6195363
2.1627725229702786e-09	0.79390955	0.2979445	0.50747955	-0.02717704	0.549084	0.73215264
2.174640655276744e-09	0.7928565	0.30427662	0.5057862	-0.012522262	0.4099812	0.81980485
2.186897741591321e-09	0.7907866	0.3111254	0.505307	0.020708814	0.2571339	0.88041055
2.1994263591940275e-09	0.7878765	0.31766295	0.5061484	0.06138893	0.09388404	0.9100964
2.2125393299367567e-09	0.78434366	0.32322615	0.5083034	0.103103235	-0.08031891	0.90563524
2.225888261525073e-09	0.7807052	0.32691547	0.5115042	0.1427056	-0.25405872	0.8639701
2.2397101450364402e-09	0.77741206	0.32825246	0.51540816	0.18621059	-0.4199164	0.7833901
2.2537867591756483e-09	0.77503157	0.32697344	0.51943266	0.24563737	-0.56137854	0.66700214
2.2683698320862785e-09	0.7739607	0.3231843	0.5230569	0.339436	-0.66217965	0.51828605
2.2830855893816935e-09	0.7744624	0.317543	0.52563775	0.47870582	-0.6940986	0.3511569
2.2970766533188664e-09	0.7763024	0.31139636	0.5267807	0.6478959	-0.63216233	0.19079769
2.3095267935656534e-09	0.77878416	0.30607107	0.5266436	0.80463785	-0.47955683	0.061823603
2.3206347338078236e-09	0.7813589	0.30196798	0.5256634	0.9146241	-0.25937414	-0.028029773
2.3307528908401614e-09	0.78372407	0.29906207	0.5241844	0.956746	-0.0022348242	-0.076620296
2.3402871907284985e-09	0.7857579	0.29718214	0.52241397	0.9236174	0.26086617	-0.083974496
2.3496837320533294e-09	0.78743875	0.2961713	0.5204486	0.8183006	0.5018236	-0.050137646
2.3596248641499568e-09	0.7888013	0.29597902	0.51827645	0.64883244	0.6976554	0.027629081
