# t (s)	mx ()	my ()	mz ()	m.region1x ()	m.region1y ()	m.region1z ()
0	0	1	0	0	1	0
1.023e-12	-0.024336897	0.99957347	0.015729917	-0.027404057	0.9994799	0.016996866
2.047e-12	-0.048078343	0.99831885	0.031551883	-0.054151848	0.9979508	0.034084126
4.095e-12	-0.093618944	0.9934874	0.06336594	-0.10548151	0.9920664	0.06839441
8.191e-12	-0.17649844	0.9756464	0.12728447	-0.19888975	0.9703979	0.13700396
1.5449100973974294e-11	-0.29528743	0.92361563	0.23944214	-0.33261162	0.9077366	0.2556858
2.2643574985474386e-11	-0.37824342	0.85575664	0.3464253	-0.4263779	0.8271586	0.3660313
2.996332200239058e-11	-0.43051797	0.7785581	0.4486867	-0.48735476	0.73696804	0.46828192
3.7494736197758565e-11	-0.45565858	0.69623935	0.5455036	-0.52105945	0.6423946	0.56185895
4.528889571606892e-11	-0.45710006	0.6112132	0.63585323	-0.5326402	0.5463374	0.6462091
5.33522714678266e-11	-0.4385026	0.5246163	0.718311	-0.52696395	0.4502182	0.72061926
6.165122554082496e-11	-0.4040135	0.43659106	0.79122335	-0.5087388	0.3544737	0.78428286
7.016411615459149e-11	-0.35798517	0.34618178	0.85321367	-0.48232272	0.25850025	0.836642
7.890998012934776e-11	-0.304479	0.25157976	0.9031476	-0.45142457	0.16087455	0.8772594
8.793512583255768e-11	-0.24714616	0.15075131	0.9397166	-0.41908646	0.059897464	0.9054267
9.72877416339602e-11	-0.1893015	0.04214528	0.96115935	-0.38775557	-0.045864373	0.9199313
1.0699619758979331e-10	-0.1337782	-0.074608445	0.96529424	-0.35915175	-0.15710786	0.91908264
1.167283309391962e-10	-0.08391049	-0.19407763	0.9506796	-0.33458084	-0.2696392	0.90185696
1.2562428283590505e-10	-0.042683877	-0.3031007	0.9209627	-0.3144287	-0.37247702	0.87177944
1.3415324895785027e-10	-0.0049779247	-0.4049557	0.8781457	-0.29493454	-0.4699673	0.83026886
1.4262747709507866e-10	0.03383314	-0.5009068	0.8223059	-0.27237755	-0.56455964	0.7770884
1.5115938145298532e-10	0.07820238	-0.58924043	0.75355595	-0.2426847	-0.65607053	0.7120566
1.5953335620687145e-10	0.13112974	-0.6644831	0.67496777	-0.2025295	-0.7404295	0.6376957
1.6769211439111135e-10	0.1954414	-0.7229634	0.5891718	-0.14872578	-0.81498647	0.556004
1.7573080197993982e-10	0.27392158	-0.76160955	0.49739414	-0.077717975	-0.87771	0.4675203
1.8358005769043223e-10	0.36619014	-0.7757777	0.40286344	0.01183146	-0.9241467	0.3745616
1.9135627595937522e-10	0.47172678	-0.7608408	0.30693698	0.121883415	-0.9497853	0.277451
1.991132148450731e-10	0.5869419	-0.71108073	0.21213716	0.25238648	-0.9477008	0.17742594
2.0671641547571435e-10	0.7022095	-0.62351316	0.12380122	0.39700565	-0.9104213	0.07872108
2.1410844553480514e-10	0.80654925	-0.4991957	0.046339236	0.54652816	-0.83255076	-0.0148160495
2.2146219849004784e-10	0.89110494	-0.3387501	-0.018232938	0.6929813	-0.7077713	-0.10159263
2.288752633495718e-10	0.94496655	-0.14652576	-0.06653695	0.82291216	-0.5312702	-0.17779075
2.362393185571122e-10	0.9577836	0.06290541	-0.09431268	0.9161911	-0.3089907	-0.23652011
2.4351695505695597e-10	0.9262327	0.2726031	-0.09973787	0.95594233	-0.05520666	-0.27207708
2.50763453876859e-10	0.8532357	0.46790755	-0.08280984	0.9317771	0.2110172	-0.28027368
2.5801352846958096e-10	0.74695647	0.63582146	-0.04475978	0.84183574	0.46529457	-0.25835714
2.6525927195976373e-10	0.6200892	0.7668251	0.011625728	0.6961682	0.6821846	-0.20651813
2.7259719902650784e-10	0.48493412	0.85832334	0.083514094	0.512347	0.84535134	-0.12722525
2.8012290558436834e-10	0.3531257	0.9109278	0.16802308	0.31232327	0.94628364	-0.024831098
2.8792048145271283e-10	0.23508847	0.92760384	0.26208726	0.11869475	0.98509866	0.094663806
2.9603865007080395e-10	0.13960904	0.91302556	0.3621179	-0.04899287	0.96969163	0.22392431
3.042710090874584e-10	0.07411429	0.8742202	0.4614759	-0.17516334	0.9150321	0.35199195
3.1274893249439676e-10	0.038489297	0.81690294	0.55812895	-0.2597256	0.83519566	0.475038
3.216264033552263e-10	0.031624027	0.74391997	0.650349	-0.30609804	0.7392784	0.59088284
3.310405553041438e-10	0.05180428	0.6557958	0.7357165	-0.31897375	0.63216764	0.69760513
3.4082552309732517e-10	0.09461267	0.5542827	0.8088439	-0.30471358	0.5185678	0.7905423
3.509082016940185e-10	0.15319526	0.4398109	0.8657556	-0.27188528	0.3993107	0.8672198
3.6096546075876485e-10	0.21807963	0.316538	0.90238607	-0.23024788	0.27684176	0.9244225
3.7093118095674735e-10	0.28217715	0.18754165	0.9177925	-0.18748206	0.15087792	0.9618199
3.809805171140135e-10	0.34226108	0.0543971	0.9118087	-0.14805412	0.019100389	0.9795384
3.9124178000430863e-10	0.3972345	-0.0790752	0.8837365	-0.1146772	-0.11905525	0.9762841
4.0127926592851734e-10	0.4460552	-0.20059484	0.83606094	-0.08909035	-0.25512463	0.95184064
4.1109507046839404e-10	0.49252453	-0.30409133	0.7721962	-0.068444945	-0.3857857	0.9076895
4.210135475879482e-10	0.5427876	-0.38662606	0.69326806	-0.047082588	-0.51172626	0.8434385
4.3063574799673887e-10	0.5987461	-0.43937135	0.6063605	-0.019373672	-0.624356	0.7635242
4.3987501559872435e-10	0.6611475	-0.45927083	0.5171114	0.020531975	-0.7198745	0.67218375
4.4897941497284037e-10	0.73014593	-0.44475305	0.42767775	0.0788928	-0.7974633	0.5701924
4.579293353886052e-10	0.8012887	-0.39406812	0.34265828	0.15953608	-0.85204804	0.46065098
4.668843641027443e-10	0.8686869	-0.3059795	0.26510495	0.26580584	-0.87755966	0.344611
4.756638050914253e-10	0.9220162	-0.18544611	0.20095716	0.39363068	-0.86505467	0.2279404
4.84474942362747e-10	0.9533317	-0.036891952	0.15268295	0.5391474	-0.80481046	0.11224627
4.93277089240264e-10	0.9548449	0.12825802	0.12400061	0.68904155	-0.68748474	0.0036381711
5.020246512827066e-10	0.9236646	0.2950902	0.11686802	0.8232305	-0.509276	-0.09041688
5.108606772790114e-10	0.8615933	0.4516291	0.13152435	0.9194226	-0.2707355	-0.1630395
5.198142748571382e-10	0.7755336	0.5851935	0.16705506	0.9517638	0.013750908	-0.20478244
5.287679813874981e-10	0.67803335	0.685361	0.21995486	0.9024782	0.30993065	-0.20709676
5.378186753402075e-10	0.58064866	0.7499309	0.28643885	0.77139276	0.58118695	-0.16609497
5.469916295198914e-10	0.4942464	0.77974826	0.36196926	0.5785712	0.7907212	-0.08317302
5.56315959955026e-10	0.42680004	0.7783903	0.4419564	0.35983065	0.916543	0.033911213
5.659098792614008e-10	0.38255847	0.75009024	0.5227594	0.15204827	0.95763534	0.17419648
5.758604185667854e-10	0.36343172	0.6982935	0.6005587	-0.015703648	0.92775875	0.32511204
5.860305587568657e-10	0.36855412	0.6270991	0.6700028	-0.12687849	0.84945786	0.47218752
5.964110704403562e-10	0.3937704	0.53962517	0.72731465	-0.1833057	0.7432735	0.60663956
6.072243944700509e-10	0.43441308	0.43640745	0.7699494	-0.19525543	0.6191561	0.72558594
6.186688651598107e-10	0.4857244	0.31828508	0.7942143	-0.17372753	0.47963268	0.8261241
6.307974193506729e-10	0.5423859	0.18974532	0.7955633	-0.1306921	0.32437196	0.90335053
6.430015367548816e-10	0.5974961	0.065698296	0.77216595	-0.081285596	0.16069001	0.9498437
6.547900067520078e-10	0.64818746	-0.039572082	0.7281795	-0.037116032	-0.002909603	0.9641934
6.666241955777502e-10	0.6982331	-0.12144707	0.66663873	-0.00015614768	-0.16857946	0.9478177
6.782839195605472e-10	0.7487976	-0.17054126	0.5939606	0.030675791	-0.32733724	0.9017303
6.892704887749455e-10	0.79800624	-0.18227006	0.5199313	0.060471047	-0.46660236	0.8323449
6.99999397463526e-10	0.84535444	-0.1581488	0.4479465	0.09834474	-0.5867243	0.742531
7.107645628774573e-10	0.8872509	-0.098403715	0.38162187	0.15383652	-0.6847974	0.63376004
7.212047818724358e-10	0.9160174	-0.009893963	0.32807398	0.23152004	-0.75084275	0.51442844
7.313711930154479e-10	0.92663276	0.09819873	0.29028034	0.33329046	-0.7787732	0.38974258
7.414973286599965e-10	0.91607946	0.21734318	0.2695983	0.458662	-0.7605918	0.26267454
7.516381394813547e-10	0.88384867	0.33646554	0.2671813	0.5997637	-0.68557847	0.1391915
7.618135201240685e-10	0.8333051	0.44442222	0.28273642	0.7403259	-0.5446356	0.027255964
7.718624637526657e-10	0.7723167	0.5309034	0.3137241	0.8542948	-0.33938944	-0.062086657
7.818437189057252e-10	0.70906126	0.59193414	0.35663453	0.9159744	-0.08109072	-0.119994916
7.918075775001152e-10	0.6509887	0.62663907	0.40762872	0.9035044	0.20513698	-0.13812897
8.016250341160071e-10	0.60450083	0.636348	0.46187538	0.8104656	0.47712457	-0.11169739
8.113632373434284e-10	0.57225436	0.6245532	0.51592374	0.65156615	0.69739354	-0.042383727
8.213536165233033e-10	0.55464745	0.5935958	0.5682173	0.45268443	0.8428331	0.06564716
8.326013208035553e-10	0.55249935	0.54023147	0.6196394	0.23617935	0.901212	0.21483062
8.440693845470337e-10	0.5663143	0.47050261	0.66066504	0.066545725	0.8678319	0.3751987
8.553157971928857e-10	0.59120303	0.3920119	0.6873541	-0.034325536	0.7779651	0.5230928
8.66765389321769e-10	0.62362516	0.30706352	0.6993797	-0.07756802	0.6562729	0.6536089
8.791321357327971e-10	0.6624859	0.21616876	0.69488317	-0.076120704	0.50844276	0.7662998
8.931279892622587e-10	0.7077093	0.12375946	0.66927886	-0.040168315	0.33027825	0.8556583
9.073456702500997e-10	0.7531103	0.052001834	0.62473536	0.010497492	0.14193705	0.9037401
9.214936991527685e-10	0.79676676	0.012347007	0.56785333	0.060588457	-0.04789393	0.9083707
9.348718027158592e-10	0.8348434	0.00977676	0.5093492	0.10372767	-0.22221783	0.87357503
9.478421727661613e-10	0.86524034	0.04104706	0.45499426	0.1456907	-0.37744626	0.80549324
9.606390076928527e-10	0.88410723	0.10124237	0.40979362	0.19622661	-0.5077633	0.70902985
9.72926276759813e-10	0.8874646	0.17932215	0.37900293	0.26329857	-0.602136	0.5943798
9.848001587415978e-10	0.8747777	0.26417804	0.36389133	0.3528806	-0.65498036	0.46942505
9.96354832426686e-10	0.8481623	0.34578127	0.36402178	0.46580076	-0.65952814	0.3414499
1.0077256723199322e-09	0.8116953	0.41655254	0.37777635	0.5969569	-0.6072312	0.21705088
1.0189677512984421e-09	0.77080005	0.47098225	0.40266845	0.73243034	-0.48936778	0.10423909
1.0300405568523306e-09	0.73132104	0.50603825	0.4353091	0.8481946	-0.303507	0.012946175
1.0402054431507808e-09	0.6998732	0.52112305	0.46954533	0.912542	-0.077529125	-0.04383913
1.0499300675049693e-09	0.6765862	0.5207884	0.50363374	0.9138592	0.16954327	-0.06540611
1.0594003301829878e-09	0.6615061	0.5078278	0.5359715	0.84728265	0.4094036	-0.049776096
1.0687769823925344e-09	0.65423435	0.48430926	0.5653584	0.7213362	0.6122554	0.0025820327
1.0785956461967783e-09	0.6543399	0.450285	0.5916885	0.5509007	0.7587553	0.09159895
1.0895429135058122e-09	0.6625252	0.4038429	0.6140524	0.3581591	0.83045936	0.21826766
1.1006944431608775e-09	0.67772925	0.35083684	0.62796485	0.19898133	0.81893086	0.35838607
1.1115828645886392e-09	0.69725615	0.29727912	0.6322725	0.096833535	0.7528209	0.49052778
1.1228588893803015e-09	0.7204399	0.24395612	0.62712544	0.04382828	0.6522069	0.6123329
1.13508060513998e-09	0.74713945	0.19325498	0.61142385	0.032586284	0.5237351	0.7209403
1.1486447444657753e-09	0.7768233	0.1510958	0.5839349	0.0555048	0.36786273	0.80933553
1.1629791426351085e-09	0.8062177	0.12793219	0.5473255	0.09913621	0.19342113	0.8638627
1.1781635497143302e-09	0.8323611	0.13073727	0.5057804	0.15058458	0.003477511	0.87667024
1.1928109655446755e-09	0.84933	0.15949492	0.46899647	0.1987538	-0.1760139	0.84519
1.2069325296677788e-09	0.85490555	0.2068361	0.4416062	0.24696574	-0.33443746	0.7762387
1.2207214319753115e-09	0.8484355	0.26422533	0.42590305	0.30520958	-0.46328476	0.6769945
1.2340425649655917e-09	0.8314753	0.32181183	0.42262152	0.3828918	-0.55126804	0.55787224
1.2470656390363248e-09	0.80726874	0.37254882	0.4305249	0.48673785	-0.5891101	0.42752764
1.259962843801883e-09	0.7797959	0.41157067	0.4476139	0.6163086	-0.56376606	0.29446444
1.2720248740023356e-09	0.75480837	0.43478492	0.46967673	0.7497244	-0.46830738	0.17660145
1.2831069247408511e-09	0.7352165	0.4437988	0.49289536	0.86108893	-0.3107508	0.08423271
1.293597390351402e-09	0.72125465	0.4417026	0.51554775	0.92982256	-0.10293493	0.021281132
1.30353415450255e-09	0.71285707	0.4310111	0.5360632	0.93823844	0.12915231	-0.0069584567
1.313141393688337e-09	0.70933676	0.41371933	0.553813	0.8818767	0.3568069	0.0012529733
1.3228726093104189e-09	0.710146	0.39056247	0.5687081	0.7661366	0.55607855	0.046619993
1.3326182540582843e-09	0.7148916	0.36321917	0.57974464	0.61509216	0.6973614	0.12437585
1.3423432876737712e-09	0.7229203	0.33350152	0.586368	0.4606934	0.7714083	0.22411469
1.3519473996918873e-09	0.73337454	0.30353892	0.58836854	0.32933065	0.78650486	0.3330626
1.3616730566396004e-09	0.74577796	0.27437758	0.58583665	0.23037988	0.75811046	0.44422182
1.3716141718428543e-09	0.75958806	0.24759471	0.5788378	0.1666405	0.6986544	0.55145454
1.3819272514092252e-09	0.7743415	0.22479427	0.5675121	0.13545893	0.61593014	0.650828
1.3926369176369183e-09	0.7892985	0.2080755	0.55236685	0.13209265	0.51466143	0.7377817
1.403671127918e-09	0.8034383	0.19946703	0.5344906	0.14975499	0.39812952	0.8075997
1.4149990410383892e-09	0.8156605	0.2002933	0.5153444	0.1808579	0.2684096	0.8564659
1.426777104023618e-09	0.8248875	0.21121794	0.49638975	0.2191319	0.12589434	0.8811644
1.4388314526064655e-09	0.8297125	0.23161623	0.47981036	0.25918022	-0.023194928	0.8778355
1.4511894134560095e-09	0.8291748	0.25964588	0.46737736	0.29957837	-0.17239483	0.8443936
1.4638644699110684e-09	0.8228337	0.29231143	0.460574	0.34334028	-0.31247193	0.78022516
1.476714023631913e-09	0.8112565	0.32537323	0.46028906	0.39718136	-0.43050033	0.68821406
1.4898022811971409e-09	0.7958727	0.35495418	0.46649826	0.47059754	-0.5138614	0.57294244
1.5030889265292199e-09	0.7789521	0.37742975	0.47835755	0.5704069	-0.54628336	0.44245943
1.5165552321227473e-09	0.76305795	0.390326	0.49426734	0.6949514	-0.5088583	0.3076908
1.5294171909985455e-09	0.75107	0.3927254	0.51110697	0.81972504	-0.39252806	0.18955204
1.5409482027992931e-09	0.7439975	0.38706684	0.52594256	0.910877	-0.21703178	0.10493303
1.5515986266890508e-09	0.74086034	0.37614468	0.5382704	0.95141596	-0.0050057336	0.05560924
1.5616371289898638e-09	0.7408159	0.3618197	0.5479002	0.9331225	0.2160851	0.042504173
1.571378712872995e-09	0.7432271	0.34518912	0.55487454	0.8589578	0.4206311	0.06451773
1.5814743671961724e-09	0.7479198	0.32625878	0.55927867	0.7365573	0.59210324	0.12169108
1.5917230943408196e-09	0.7545352	0.3065554	0.5606285	0.5918348	0.7050189	0.2078338
1.6019097264621108e-09	0.76247776	0.2878099	0.55887663	0.4559639	0.7545155	0.31046382
1.6120000404628675e-09	0.77118045	0.27130988	0.5543263	0.34808818	0.7523595	0.4181055
1.6222818646401066e-09	0.78035975	0.2577315	0.5472304	0.27304068	0.71197224	0.5251678
1.6329352756318935e-09	0.7896108	0.24804844	0.53789026	0.23118646	0.6421892	0.62673
1.6440647215566591e-09	0.798347	0.24336994	0.5268221	0.21968785	0.5482715	0.71782273
1.65558939798856e-09	0.8057225	0.24461994	0.5149842	0.23289351	0.43445545	0.79244184
1.667586422229959e-09	0.81094605	0.25215766	0.5034126	0.26335	0.30241835	0.8460393
1.680147316970103e-09	0.81320167	0.26577607	0.4933054	0.30370542	0.15401858	0.87358886
1.6932625492290778e-09	0.81179905	0.28433532	0.48600364	0.34772524	-0.005160967	0.8697063
1.7067440006388306e-09	0.8065889	0.30544	0.48267132	0.39231783	-0.16333297	0.83104575
1.7207418057022222e-09	0.7980026	0.32651973	0.48387176	0.4414075	-0.3086212	0.7564069
1.7352276627325119e-09	0.7872277	0.34447342	0.48963073	0.5042485	-0.4230937	0.64847505
1.7499781197297651e-09	0.776204	0.35639635	0.49906224	0.5908379	-0.4847516	0.51678574
1.7646341623654796e-09	0.76702464	0.360704	0.5103969	0.70207477	-0.47253808	0.377787
1.778291840035585e-09	0.761237	0.35796666	0.5211698	0.81682473	-0.37968546	0.2556754
1.7904999356108081e-09	0.7587699	0.35069078	0.5298431	0.90588653	-0.22435766	0.16610238
1.8015659761331324e-09	0.7587475	0.34101024	0.53622484	0.95103943	-0.03187691	0.11200197
1.8118617878382118e-09	0.7604349	0.33018166	0.5404969	0.94455296	0.172368	0.09269866
1.821794923384766e-09	0.7633785	0.31882104	0.5428821	0.88763493	0.3664397	0.10638071
1.8319703130270467e-09	0.7674567	0.30701768	0.54347	0.7858851	0.53462404	0.1525866
1.8431145869687107e-09	0.7728147	0.29480934	0.54200196	0.64864343	0.6606379	0.23375085
1.8539812876681863e-09	0.7785668	0.28452823	0.5386383	0.5183176	0.71923834	0.3325773
1.8648278882137522e-09	0.7844312	0.27664894	0.5337141	0.41333726	0.7230337	0.4388826
1.875964822913163e-09	0.79015034	0.271639	0.5275012	0.34124696	0.68438226	0.5458924
1.8875976153482594e-09	0.7953324	0.2700961	0.52037346	0.30398256	0.61175126	0.647342
1.8998507082556054e-09	0.799441	0.2725539	0.51290643	0.299115	0.5102127	0.736663
1.9127893237820234e-09	0.8018535	0.2792172	0.5059	0.32050133	0.38270772	0.80669916
1.926495073697705e-09	0.80198395	0.28974926	0.50028914	0.3594927	0.23158039	0.8498645
1.9410275945877737e-09	0.7994393	0.30307913	0.49704647	0.40701067	0.062090773	0.8579527
1.95628158194045e-09	0.7943132	0.31720358	0.49695167	0.456764	-0.112466626	0.82392484
1.9723843827340266e-09	0.7872642	0.32978415	0.5002915	0.5113595	-0.27351272	0.74395305
1.989038178575938e-09	0.77975225	0.33816156	0.5065768	0.5816736	-0.39120945	0.62299514
2.0048857213941274e-09	0.7738314	0.34070575	0.51397854	0.6728277	-0.43414208	0.4860853
2.019693658086846e-09	0.7702969	0.33830068	0.52094054	0.77841717	-0.39401716	0.35520092
2.0329328903236003e-09	0.769105	0.33282793	0.5263458	0.87397605	-0.2811982	0.25078553
2.044931022615508e-09	0.7696071	0.32589447	0.53006643	0.93822527	-0.11679372	0.17913197
2.055792098410495e-09	0.7711868	0.31865248	0.5322149	0.957084	0.07008337	0.14243673
2.0660350195445512e-09	0.77344894	0.31152257	0.5330774	0.9286784	0.25781837	0.13798173
2.076247061829379e-09	0.77624255	0.30460298	0.5328051	0.85609543	0.4304293	0.16431169
2.0870199621954775e-09	0.77955616	0.29799378	0.5313667	0.7462663	0.5723904	0.22223036
2.098374401104211e-09	0.7832185	0.2923038	0.5287435	0.6199283	0.663168	0.30818072
2.109662945530821e-09	0.78678	0.28838837	0.52527136	0.5090397	0.69479704	0.4074875
2.1213151449365644e-09	0.7900952	0.28648642	0.5211347	0.4259406	0.6776727	0.51284647
2.1335384555874847e-09	0.7928807	0.28694832	0.5166303	0.37742177	0.6198521	0.6163571
2.14667286572023e-09	0.7947887	0.29008126	0.51212966	0.36406294	0.52537465	0.71115434
2.1607370194241252e-09	0.79536	0.29589224	0.50827193	0.38186252	0.39745656	0.7869524
2.176018202806879e-09	0.7942069	0.30399498	0.5057383	0.42211094	0.23682773	0.83343816
2.192213978471891e-09	0.79124117	0.31304795	0.5052516	0.47257736	0.054957785	0.8377757
2.20946415265235e-09	0.7868179	0.32136893	0.50713533	0.5267343	-0.13125667	0.7907742
2.227335131559081e-09	0.78195566	0.3269042	0.51109993	0.58862007	-0.28761786	0.6918759
2.244852717891082e-09	0.7780418	0.32840192	0.5160072	0.66915447	-0.37473804	0.5594032
2.2615067770040235e-09	0.77587765	0.3262431	0.52061075	0.77033496	-0.37037644	0.42028245
2.275925978251585e-09	0.7754856	0.32209954	0.5238762	0.8656824	-0.2818835	0.3076829
2.2886107556650422e-09	0.77622414	0.31732488	0.5258493	0.93308663	-0.13665186	0.2291672
2.29984061418181e-09	0.7775651	0.31270093	0.5267564	0.95890856	0.033985946	0.18575117
2.310409303998218e-09	0.779245	0.3083743	0.5268589	0.9412247	0.21116391	0.17345698
2.3209211373116105e-09	0.7811583	0.30439174	0.5262689	0.8815378	0.37917137	0.19111095
2.331875123281182e-09	0.7832604	0.30085546	0.52500165	0.78605264	0.52164143	0.23919807
2.343433617360047e-09	0.785452	0.29806897	0.52308345	0.67142254	0.61986166	0.31556877
2.3550186667736756e-09	0.7874757	0.29646635	0.5207535	0.56644267	0.66243184	0.40786117
2.3671017708575415e-09	0.78924376	0.2961939	0.5181323	0.4846564	0.6557899	0.5091295
2.379996966420741e-09	0.7905749	0.29746285	0.51541877	0.4351048	0.6046271	0.61159045
2.39395557935048e-09	0.7912133	0.3004089	0.5129263	0.42127845	0.5116898	0.7059357
2.4090838273903192e-09	0.7908827	0.304891	0.51109827	0.44004595	0.37913847	0.78013414
2.4255898804204087e-09	0.7893969	0.31038356	0.5104047	0.48199695	0.20972437	0.8205347
2.443206449747483e-09	0.7868743	0.3157385	0.5111962	0.53434753	0.019024042	0.81217825
2.461479147843756e-09	0.7838786	0.31957752	0.51338303	0.59106857	-0.16185726	0.7481413
2.48023325959554e-09	0.78120387	0.32094517	0.5164425	0.66118616	-0.29483524	0.63390535
2.4984349385842937e-09	0.7796523	0.31969428	0.5194538	0.75273687	-0.33913577	0.49545288
2.5143942240221945e-09	0.77940285	0.3169171	0.521586	0.8475171	-0.28659335	0.37285691
