# t (s)	mx ()	my ()	mz ()	m.region1x ()	m.region1y ()	m.region1z ()
0	0	1	0	0	1	0
1.023e-12	-0.02433573	0.99957347	0.015729798	-0.026997657	0.9994918	0.016953973
2.047e-12	-0.04807602	0.998319	0.03155164	-0.0533422	0.9979976	0.0339946
4.095e-12	-0.09361434	0.9934879	0.06336545	-0.103881285	0.9922485	0.068203956
8.191e-12	-0.17648953	0.9756482	0.12728353	-0.19580089	0.9710824	0.1366035
1.5452051809612366e-11	-0.29531276	0.9235964	0.23948583	-0.327322	0.90983653	0.25505215
2.264586236751306e-11	-0.3782434	0.85574466	0.34645772	-0.41931847	0.83105665	0.36536875
2.996478772827081e-11	-0.4304993	0.7785588	0.44870734	-0.47882	0.74277246	0.46793845
3.749771941796838e-11	-0.45563224	0.6962286	0.54554373	-0.5111247	0.6500284	0.5622406
4.5294172217379366e-11	-0.45705682	0.6111829	0.6359182	-0.52115214	0.5556581	0.64767766
5.3357934989951656e-11	-0.43843985	0.52458715	0.71837676	-0.5136211	0.46105883	0.7234587
6.165626909499503e-11	-0.40393692	0.43657222	0.7912809	-0.49317363	0.3666005	0.78872025
7.016948227378058e-11	-0.3578925	0.3461612	0.85327107	-0.4641577	0.2715972	0.84284675
7.891558826259155e-11	-0.30437195	0.25155556	0.9032032	-0.43032902	0.17457138	0.8853318
8.794117538267701e-11	-0.2470251	0.1507186	0.9397694	-0.39481643	0.07375392	0.9154145
9.729166305655649e-11	-0.18918389	0.042131856	0.9612031	-0.36021692	-0.032308575	0.9318211
1.0700002229981088e-10	-0.13365252	-0.07462718	0.9653344	-0.32843268	-0.14437312	0.9328005
1.1673178313551723e-10	-0.08377957	-0.19409868	0.95071596	-0.30110854	-0.25810713	0.9171904
1.2562761512910574e-10	-0.042547926	-0.30312604	0.9209944	-0.2789633	-0.3622376	0.88835406
1.3415813496400464e-10	-0.004830169	-0.40500328	0.8781628	-0.25809893	-0.46100602	0.8477828
1.4263272778341118e-10	0.033988267	-0.5009592	0.82231146	-0.23472796	-0.556723	0.7952887
1.5116411517641586e-10	0.0783621	-0.58928454	0.75355595	-0.2047384	-0.6490793	0.7306983
1.5953648409111256e-10	0.13128701	-0.66450703	0.6749745	-0.16474904	-0.73386043	0.65654683
1.6769533549387692e-10	0.19560716	-0.72297883	0.5891707	-0.111467496	-0.808366	0.5748528
1.757332027298594e-10	0.274087	-0.76160765	0.4973961	-0.041297045	-0.87049353	0.48624277
1.8358203453808807e-10	0.36635652	-0.77575797	0.4028661	0.047130078	-0.91579115	0.39310086
1.913592123416415e-10	0.4719104	-0.76079524	0.30692512	0.15572336	-0.9397545	0.29583064
1.9911593764390748e-10	0.58712256	-0.7110051	0.21212795	0.2842491	-0.93552	0.19581689
2.0671974499607853e-10	0.70239156	-0.62339395	0.12378903	0.42625484	-0.8958675	0.09739239
2.141098170631549e-10	0.80668706	-0.4990762	0.04635489	0.5723451	-0.81584185	0.00454001
2.2146462933951735e-10	0.8912287	-0.33858028	-0.018215595	0.71456087	-0.6895774	-0.08115134
2.2887726787458842e-10	0.9450498	-0.14634708	-0.06650095	0.83953965	-0.5130535	-0.15581793
2.362419315566477e-10	0.95782423	0.06310599	-0.09425964	0.9279641	-0.29287583	-0.21279156
2.4351928499488117e-10	0.92623216	0.2727818	-0.09966368	0.96411574	-0.043620404	-0.24671498
2.507655310187228e-10	0.8532069	0.46804893	-0.082717404	0.93889767	0.21613918	-0.25386387
2.5801625160863514e-10	0.74690384	0.63593507	-0.044648338	0.85138047	0.46333572	-0.23193711
2.6526250859091684e-10	0.62003255	0.76689965	0.011752365	0.7116495	0.6743151	-0.18139721
2.7259993910359343e-10	0.4849109	0.85834944	0.083640456	0.53636926	0.834294	-0.10470593
2.801260240273901e-10	0.35313383	0.9109268	0.168152	0.34586424	0.9356555	-0.005879485
2.8792408745345153e-10	0.23513511	0.9275869	0.26221594	0.16107607	0.97835964	0.10962686
2.960387959086564e-10	0.13973697	0.91301626	0.36219501	0.00044071453	0.969304	0.2350618
3.042709345031286e-10	0.07427244	0.8742252	0.461542	-0.12103591	0.9218261	0.36019418
3.1275050585846914e-10	0.038666718	0.8169106	0.55820644	-0.20258602	0.84885526	0.48136666
3.216274121398699e-10	0.031826552	0.74394387	0.6504141	-0.24674097	0.75884813	0.59635395
3.3104176685656204e-10	0.052029427	0.6558257	0.73577833	-0.25738856	0.65626884	0.7031758
3.4082706827969886e-10	0.09486077	0.5543109	0.80890286	-0.24029545	0.5455123	0.79694074
3.509092879669069e-10	0.15346107	0.43983948	0.86580634	-0.2037445	0.42735153	0.8748582
3.6096816446725576e-10	0.21837434	0.31653565	0.90243423	-0.157653	0.3042684	0.9333795
3.7093301718917063e-10	0.28248197	0.18753521	0.91782784	-0.11005492	0.17629232	0.97188115
3.8098192740316493e-10	0.34257665	0.054379575	0.9118315	-0.06569434	0.041357648	0.9903345
3.912438138260412e-10	0.3975649	-0.07911636	0.8837413	-0.027580684	-0.10071754	0.98730826
4.012794875706693e-10	0.4463874	-0.2006253	0.8360575	0.0020966816	-0.2406356	0.9625379
4.1109252210077047e-10	0.49285442	-0.3041005	0.7721963	0.026157238	-0.37440747	0.9175857
4.210111469893193e-10	0.5431296	-0.38663882	0.69325316	0.050452806	-0.502164	0.85213464
4.306328115679508e-10	0.5990975	-0.43937325	0.60633665	0.08060502	-0.6145557	0.7708826
4.3987187846836813e-10	0.66151047	-0.45925373	0.51707757	0.122503385	-0.7074288	0.678323
4.4897726363540397e-10	0.73052925	-0.44470045	0.42762485	0.18230875	-0.77963215	0.5754599
4.5792596352305987e-10	0.80167127	-0.39397472	0.34261182	0.2633523	-0.8258993	0.46574864
4.668831847732225e-10	0.86908525	-0.30579984	0.26504102	0.36819085	-0.8400645	0.35054308
4.756618502983199e-10	0.92239183	-0.18519968	0.20090966	0.4915527	-0.8139235	0.23617765
4.844706392078184e-10	0.9536616	-0.036607772	0.1526662	0.62817067	-0.7387406	0.12469678
4.932734923113215e-10	0.95511353	0.12862507	0.12400853	0.7637417	-0.6074587	0.022476384
5.020228141629462e-10	0.9238359	0.295539	0.11691502	0.8782564	-0.4196158	-0.0629907
5.108588052917622e-10	0.861655	0.45208618	0.13162278	0.9509847	-0.1794466	-0.12511802
5.198147790097935e-10	0.7754647	0.585641	0.16722079	0.96039045	0.095745526	-0.1556004
5.287696582838368e-10	0.67787564	0.6857227	0.22018349	0.8951555	0.37182957	-0.14789988
5.378186088975673e-10	0.58048815	0.7501538	0.28669697	0.7603852	0.6163283	-0.1001632
5.469893446134324e-10	0.49414086	0.7798448	0.362231	0.5778174	0.79978645	-0.015321854
5.563154224852158e-10	0.4267605	0.77839327	0.44223532	0.3798266	0.9070634	0.09872545
5.659103635308912e-10	0.38261908	0.75002897	0.52303255	0.19722927	0.9400058	0.23210861
5.758638418217304e-10	0.36359742	0.69818467	0.6008276	0.05322632	0.91114855	0.3741545
5.860344252385309e-10	0.36881873	0.62697333	0.67023957	-0.039124183	0.83908343	0.51228964
5.964162786287759e-10	0.39411694	0.5394802	0.7275193	-0.08187679	0.74024814	0.6388604
6.07229792007883e-10	0.4348202	0.43625024	0.770111	-0.08380521	0.6220814	0.75109076
6.186773012930461e-10	0.48618805	0.31807965	0.79433113	-0.054459274	0.485767	0.84580976
6.308067768694835e-10	0.5428811	0.18951087	0.795619	-0.0048789647	0.3306479	0.91757023
6.43010603546482e-10	0.5980051	0.06545496	0.7721578	0.050033294	0.16474162	0.958661
6.54800949204758e-10	0.64871484	-0.039826456	0.72810054	0.09887137	-0.0018534756	0.96752465
6.666325707899394e-10	0.6987629	-0.121655434	0.66651237	0.14021306	-0.1696057	0.94533426
6.782921943155082e-10	0.7493465	-0.17069648	0.593783	0.17553204	-0.32792246	0.89347285
6.892816734085495e-10	0.79859227	-0.18234508	0.5196949	0.21003242	-0.46306244	0.8190546
7.000097259483771e-10	0.84595966	-0.15811206	0.44769144	0.25286487	-0.57439786	0.72535735
7.107718781543901e-10	0.88785875	-0.098248795	0.38137767	0.31295788	-0.6579869	0.61443514
7.212132057073866e-10	0.9166227	-0.009580516	0.3278356	0.39321992	-0.70404875	0.49540475
7.313821222072396e-10	0.92720056	0.09869775	0.29006782	0.49337196	-0.7070612	0.3741018
7.415090175713216e-10	0.91656315	0.21800464	0.26944473	0.6101481	-0.6601486	0.2542643
7.516515435944264e-10	0.8841984	0.3372728	0.26711234	0.7328406	-0.555733	0.1424969
7.618279181345367e-10	0.8334831	0.44531292	0.28277534	0.84349054	-0.3901988	0.047063235
7.718730468860986e-10	0.77233714	0.5317653	0.3138662	0.9181137	-0.1726733	-0.02187435
7.8185441479845e-10	0.708912	0.59272295	0.35689157	0.9369448	0.07961504	-0.057258125
7.920019391536264e-10	0.6497315	0.62766874	0.4089833	0.8862774	0.34342217	-0.053151954
8.02083995211241e-10	0.6023758	0.6366667	0.46483147	0.76903266	0.5766354	-0.0071905064
8.12059906052432e-10	0.5702696	0.62318593	0.52014685	0.60832196	0.74786067	0.07529211
8.227074661472543e-10	0.55331016	0.58814025	0.5753421	0.4242087	0.8479228	0.1929605
8.33975211473342e-10	0.5534246	0.53247046	0.6256469	0.25549296	0.8659763	0.33398855
8.456216281535052e-10	0.5693985	0.45994657	0.6655653	0.13548045	0.8142453	0.47975183
8.572295846287493e-10	0.5965905	0.37777218	0.6907626	0.074731216	0.7190568	0.61186403
8.695095884896187e-10	0.63248533	0.2862951	0.70017433	0.062489267	0.59211445	0.7290028
8.832683119681025e-10	0.67635584	0.1869487	0.6896183	0.090314664	0.43152538	0.8274446
8.975368527596296e-10	0.7224634	0.09831421	0.6572784	0.14177035	0.25184137	0.8899361
9.116999023079505e-10	0.7673562	0.03574434	0.6081996	0.19772047	0.06640567	0.91041344
9.256098369579295e-10	0.8095602	0.0075210724	0.5498842	0.24873632	-0.113868736	0.88985515
9.388320282301541e-10	0.8456489	0.015682634	0.49200708	0.29391795	-0.27278298	0.8344037
9.517214056458813e-10	0.87301546	0.056435578	0.4399034	0.34118864	-0.40476364	0.75021815
9.643461164545086e-10	0.8874685	0.12323663	0.3987561	0.39930376	-0.5013851	0.64448386
9.765409671137137e-10	0.88593864	0.20494829	0.37252957	0.47369653	-0.5542707	0.52742326
9.882909141572479e-10	0.8687125	0.28985792	0.3621603	0.56489307	-0.55865216	0.40836132
9.998066855920151e-10	0.8384651	0.36927694	0.36667666	0.6691585	-0.51032245	0.29368705
1.0110994662757714e-09	0.80004275	0.4355381	0.38411793	0.77501416	-0.4059087	0.19144009
1.0223780122492536e-09	0.75850564	0.4847309	0.4120584	0.8663861	-0.24330777	0.10822521
1.0332929062601955e-09	0.7205985	0.5135374	0.44612795	0.9191591	-0.037140615	0.054455493
1.0435344194373204e-09	0.6908947	0.52338415	0.48148125	0.9179668	0.18286653	0.03525008
1.0534282343333487e-09	0.66982645	0.51800424	0.5161825	0.86101145	0.3942533	0.050029796
1.0629988752912888e-09	0.6575106	0.50037485	0.5481264	0.7583374	0.57024527	0.0960656
1.0728143457052147e-09	0.6531161	0.47153333	0.5773406	0.6230929	0.6989614	0.17140484
1.083536660369746e-09	0.6569749	0.43019888	0.603305	0.47163907	0.7689292	0.27602306
1.094697474416162e-09	0.6689044	0.37962183	0.6221375	0.34059885	0.77149284	0.39545515
1.1056805537619085e-09	0.6864728	0.3260061	0.63150847	0.25380194	0.723521	0.5107899
1.1169113914229976e-09	0.7083419	0.27120927	0.63136756	0.20865697	0.6420933	0.6175098
1.1292524495246408e-09	0.73481685	0.21582507	0.62037224	0.19981186	0.5301725	0.7154916
1.1431297102974071e-09	0.7654493	0.16569586	0.596316	0.22349317	0.38689658	0.7970079
1.1578738137389456e-09	0.7967586	0.13299406	0.56095463	0.2682844	0.221625	0.8470509
1.173151140335424e-09	0.8251707	0.12628512	0.5193002	0.32040575	0.044158854	0.8569199
1.1879805061200517e-09	0.84553057	0.14714973	0.48019606	0.36977682	-0.12303684	0.8253463
1.202279126770233e-09	0.85507977	0.18943974	0.4492122	0.41830823	-0.26635116	0.7589767
1.2161349968360461e-09	0.85260653	0.24455163	0.42945144	0.47371575	-0.37537766	0.66627884
1.2296195587626255e-09	0.83881974	0.30329838	0.42207518	0.5437793	-0.44110218	0.55670035
1.2427337549914999e-09	0.81653905	0.35724673	0.4264797	0.6315125	-0.4552408	0.4405901
1.255634532159284e-09	0.78963035	0.4007553	0.44081172	0.7333956	-0.4099057	0.32688564
1.2679817202475317e-09	0.763227	0.42946538	0.46172148	0.8325119	-0.30265898	0.22867061
1.2792160680332856e-09	0.74174404	0.44297975	0.4846279	0.9047706	-0.14915548	0.1578449
1.2898232877916982e-09	0.7256503	0.4445787	0.50764245	0.9368794	0.03612257	0.11575601
1.2999395084168494e-09	0.7151163	0.43664694	0.5291731	0.91997236	0.23045865	0.10459698
1.309720968440503e-09	0.7097599	0.42123717	0.5482443	0.85593283	0.40979725	0.12385755
1.3196253788934445e-09	0.70908076	0.39922822	0.564664	0.75343585	0.5581612	0.17215136
1.3295201603430854e-09	0.7127459	0.3724014	0.5772594	0.6337334	0.6574878	0.24353161
1.3394387780692908e-09	0.72012377	0.34245145	0.585428	0.5186608	0.705601	0.32980424
1.3493261801420158e-09	0.73039067	0.31144568	0.5887921	0.4246724	0.7097284	0.4219199
1.3593160693311902e-09	0.742885	0.2809034	0.5873144	0.35780647	0.68040067	0.5140795
1.369625588252661e-09	0.75715244	0.25221342	0.5809438	0.31841457	0.6249946	0.60276484
1.3803355632802433e-09	0.77256304	0.22745329	0.56977576	0.30471244	0.5479988	0.68384784
1.391321538057121e-09	0.78808886	0.2092041	0.5545484	0.31249383	0.45339257	0.75212634
1.4025805037581436e-09	0.80276114	0.19939417	0.536384	0.33577052	0.34346938	0.8038031
1.4141722990569763e-09	0.81554306	0.19940305	0.51668465	0.3687155	0.22008964	0.83537203
1.426154342378139e-09	0.82520163	0.20995104	0.49717832	0.4065477	0.08660905	0.84315765
1.4383178035966576e-09	0.8303223	0.23023002	0.4801742	0.44573784	-0.04809136	0.82447296
1.450820309859532e-09	0.82999146	0.2585218	0.46732253	0.4871812	-0.17659883	0.77822113
1.4634847542017655e-09	0.82382435	0.29128867	0.46028078	0.5341332	-0.28602153	0.706431
1.476331648296976e-09	0.81237566	0.32463226	0.45978045	0.5924855	-0.36452392	0.6133407
1.4893700337837854e-09	0.79709905	0.35453978	0.46580094	0.6670296	-0.39913616	0.5057039
1.502598369292066e-09	0.78018045	0.3774887	0.47751558	0.75702244	-0.37612078	0.3929208
1.5160360120789794e-09	0.76408744	0.3909957	0.49340796	0.85144657	-0.28303975	0.28701973
1.5282618034263837e-09	0.75225127	0.39402723	0.5095361	0.9198261	-0.13610867	0.21034078
1.5392738718150943e-09	0.7448335	0.38948667	0.52397746	0.94714296	0.037010107	0.16692975
1.5495817445231787e-09	0.74103105	0.37968445	0.5363632	0.93055546	0.21533622	0.15452069
1.559725239551458e-09	0.74027586	0.36570916	0.5466757	0.8723918	0.38294604	0.17137773
1.5703021031789795e-09	0.7424368	0.3477416	0.5547844	0.7779773	0.5261905	0.21772845
1.5813739038651312e-09	0.7475045	0.32672906	0.55987525	0.66374725	0.62596023	0.29093212
1.5921144530210348e-09	0.75461507	0.30579925	0.561254	0.5598509	0.67136323	0.37685922
1.6027762189569722e-09	0.7631953	0.28606376	0.55919135	0.4781233	0.67313075	0.46770197
1.6137014135893854e-09	0.7728889	0.26841974	0.553837	0.4227233	0.6400099	0.5588273
1.6251799235674315e-09	0.7833034	0.2541167	0.5452846	0.3948331	0.57664216	0.6459561
1.6369900459351705e-09	0.79345405	0.24509153	0.5342658	0.39318076	0.48843178	0.72118217
1.6494369095467116e-09	0.80265534	0.2425494	0.5214461	0.41277435	0.3763402	0.7802754
1.662524712734788e-09	0.8097694	0.24760054	0.5081326	0.44738257	0.24356344	0.81641775
1.6763332090996087e-09	0.81360686	0.26050633	0.4959343	0.49056524	0.09539878	0.8229879
1.6906286747184155e-09	0.81312275	0.2798703	0.48685098	0.53718716	-0.054591108	0.7949063
1.7055081166980548e-09	0.8079537	0.30319816	0.48234984	0.58832604	-0.19094883	0.7305109
1.7211861090186786e-09	0.79844564	0.32713765	0.48346075	0.65142864	-0.29332802	0.6312447
1.7372251849324958e-09	0.78644156	0.3468639	0.490197	0.7325076	-0.33352175	0.5093733
1.7527173797398685e-09	0.7749922	0.3585359	0.500627	0.82367533	-0.29289702	0.38896048
1.7665077624256712e-09	0.7665987	0.36177897	0.5115785	0.8996288	-0.18348247	0.29545462
1.7785141831415663e-09	0.7614999	0.35916805	0.5211961	0.9420658	-0.036866035	0.23643567
1.7894823979821182e-09	0.75894815	0.35283294	0.52922857	0.94645286	0.12442156	0.20842177
1.8001037569770724e-09	0.75844127	0.34375268	0.5357347	0.91280746	0.2853237	0.20880783
1.8109586560852449e-09	0.75981176	0.33229363	0.54064226	0.84376657	0.4322463	0.23733622
1.8225227070675801e-09	0.7631183	0.31872678	0.54359883	0.7471186	0.54961616	0.29466212
1.8339679646001752e-09	0.7678977	0.3051038	0.544071	0.64880216	0.6169784	0.37073952
1.8454067902898322e-09	0.7737176	0.29248	0.542168	0.56553066	0.637472	0.45656398
1.8572135931915328e-09	0.7802829	0.28161812	0.53799945	0.5056447	0.61739284	0.5461363
1.8696805982845423e-09	0.7871996	0.27355704	0.531705	0.47371912	0.56075	0.6332686
1.882877130481387e-09	0.7937857	0.2695991	0.52374387	0.4705749	0.4709438	0.7096807
1.89709495950158e-09	0.7992532	0.27087793	0.5148001	0.49256292	0.34937006	0.767303
1.912554895802017e-09	0.8025268	0.278238	0.50605065	0.5330939	0.19929656	0.7955158
1.9290941965186943e-09	0.80247146	0.29124504	0.49928603	0.58358246	0.034536667	0.7829448
1.9465460048390066e-09	0.79860246	0.3076988	0.49618673	0.6402032	-0.120257944	0.7235974
1.9646511691422256e-09	0.79156744	0.32393396	0.49768263	0.7078175	-0.23069215	0.6217587
1.9822279055413332e-09	0.7835618	0.33561987	0.50307345	0.7881479	-0.26154697	0.5010461
1.998040287382728e-09	0.7769419	0.34098154	0.5100892	0.86656094	-0.20817415	0.39332083
2.0119447671020976e-09	0.7725098	0.34123224	0.5168934	0.9231025	-0.095249906	0.3152107
2.0243600216102182e-09	0.77006364	0.33812028	0.522702	0.9459992	0.047598325	0.2695558
2.0362121973707645e-09	0.7691898	0.33266684	0.52746075	0.932187	0.20203274	0.25375772
2.0481997026865093e-09	0.76973087	0.32531208	0.53107697	0.881531	0.35219643	0.2677979
2.060134304358683e-09	0.77155435	0.31690508	0.5332019	0.80457556	0.47375074	0.3095288
2.07193548655505e-09	0.7743952	0.30833825	0.53372633	0.7193947	0.553323	0.37184703
2.0838655810850284e-09	0.7780202	0.30024216	0.53268605	0.6411294	0.5894686	0.4475932
2.096256793967123e-09	0.78221214	0.2932353	0.5301182	0.5806337	0.58410114	0.53031546
2.109436806014024e-09	0.7866816	0.2880832	0.5260999	0.54510236	0.5390136	0.6131809
2.12370268603886e-09	0.7909696	0.2857302	0.520869	0.53792566	0.45520052	0.68767434
2.138877362162902e-09	0.79431105	0.28705063	0.5151385	0.55689865	0.33781385	0.7415731
2.1549887431016886e-09	0.7959826	0.29227042	0.5098443	0.5943482	0.19523627	0.7642309
2.1720171281148326e-09	0.7954297	0.30077046	0.5060659	0.6422847	0.04327363	0.746882
2.189903236501643e-09	0.79255146	0.31096637	0.5047396	0.69792384	-0.092430264	0.6861302
2.208413422157333e-09	0.7879519	0.32049632	0.50628585	0.7644465	-0.17768249	0.5889472
2.2264260299650583e-09	0.7830717	0.32683653	0.51009125	0.8382003	-0.18190081	0.47985965
2.2418761435277118e-09	0.7794463	0.32911342	0.5144192	0.8978282	-0.11368707	0.39300495
2.2559492583700392e-09	0.77708447	0.32850325	0.5185591	0.9326017	0.0015401752	0.33334717
2.2692063082482876e-09	0.77589667	0.32580167	0.52212316	0.934401	0.14037693	0.30348113
2.281997518812804e-09	0.775758	0.32163355	0.5248778	0.9023581	0.27987713	0.30348915
2.29431619454206e-09	0.7765135	0.31665212	0.52664816	0.84511256	0.39799997	0.33006713
2.306411573297898e-09	0.777992	0.31136015	0.5274107	0.77576196	0.48343593	0.37740615
2.318723511252578e-09	0.78007543	0.30611652	0.5271647	0.70628697	0.53215593	0.44025692
2.3316127661660502e-09	0.7826429	0.30135208	0.5258844	0.6476343	0.5419378	0.51305866
2.3453867989299514e-09	0.7855024	0.2976347	0.52358097	0.6089002	0.5116422	0.58886695
2.359954954879295e-09	0.78826946	0.29567987	0.52047235	0.59578484	0.4432568	0.65710557
2.3754793191876433e-09	0.7905128	0.29600525	0.51693463	0.6073254	0.34105057	0.7077773
2.391806286946531e-09	0.7917369	0.2987904	0.5135917	0.63773143	0.21522485	0.7302692
2.409082414241401e-09	0.7915958	0.30371964	0.511092	0.68049985	0.0803788	0.71698755
2.4271350845957567e-09	0.7900098	0.3098306	0.5100568	0.73184055	-0.038437672	0.66536057
2.44569110540317e-09	0.78734463	0.31568617	0.5107682	0.7914187	-0.11069485	0.5827428
2.463206193144678e-09	0.7845204	0.31967357	0.51282275	0.85130507	-0.11297857	0.49335095
2.4789097739666694e-09	0.78225505	0.32140622	0.515385	0.89828736	-0.05414473	0.41950223
2.49347878791785e-09	0.78069794	0.321311	0.51795894	0.9230654	0.045776904	0.36876264
2.507120435728648e-09	0.7798705	0.3198365	0.52020633	0.91991585	0.16376567	0.3447901
2.5200614367203756e-09	0.7796987	0.31742656	0.5219471	0.8907203	0.27884072	0.3465739
2.5325685753030434e-09	0.7800847	0.31445453	0.52310336	0.8429999	0.37597656	0.3704281
2.5450503471090428e-09	0.7809488	0.3111931	0.5236473	0.7859867	0.44686422	0.41212243
2.5580481942635402e-09	0.7822464	0.3078618	0.523539	0.72855407	0.48653916	0.4680728
2.5719536589995033e-09	0.783911	0.30478993	0.5227169	0.6804202	0.49004084	0.53338504
2.5868630035530377e-09	0.78576803	0.3024742	0.52119195	0.6509849	0.45447528	0.59961873
