# t (s)	mx ()	my ()	mz ()	m.region1x ()	m.region1y ()	m.region1z ()
0	0	1	0	0	1	0
1.023e-12	-0.024336245	0.99957347	0.01572899	-0.028848317	0.9994368	0.017152604
2.047e-12	-0.048077077	0.99831903	0.031550054	-0.0570273	0.99777925	0.034415077
4.095e-12	-0.09361655	0.9934877	0.06336237	-0.11115428	0.99139655	0.069120266
8.191e-12	-0.17649427	0.9756476	0.12727776	-0.20977823	0.9678737	0.13860564
1.5445786071076993e-11	-0.2952353	0.9236479	0.23938066	-0.35106018	0.89993006	0.25857362
2.2638887960118963e-11	-0.37819308	0.855811	0.34634382	-0.45034012	0.8128343	0.36933598
2.9958851326944993e-11	-0.43048733	0.778616	0.4486118	-0.5155119	0.7158485	0.47074535
3.748983616219784e-11	-0.4556417	0.69630504	0.545429	-0.5529208	0.6148039	0.56205136
4.528592144272443e-11	-0.4570924	0.61125916	0.63580734	-0.5685174	0.5128211	0.6427823
5.334889251129542e-11	-0.43849856	0.52466726	0.7182673	-0.56773126	0.4114682	0.71236277
6.164855354579052e-11	-0.40400508	0.43663484	0.79119235	-0.5555294	0.31116894	0.7702799
7.016172039828134e-11	-0.35796946	0.34622237	0.85319024	-0.53623277	0.21138468	0.81619775
7.890824353676257e-11	-0.30444992	0.25161192	0.9031321	-0.51331294	0.11078571	0.84982723
8.793333241649216e-11	-0.2471053	0.15078144	0.9397031	-0.4894441	0.007845853	0.87052447
9.728719088846505e-11	-0.18923874	0.04215642	0.96114814	-0.46656105	-0.09872673	0.87712896
1.0699665944474373e-10	-0.13369447	-0.07461602	0.96527815	-0.44570664	-0.20953491	0.8680374
1.1672730515511984e-10	-0.08381824	-0.19407417	0.950659	-0.4271582	-0.32052633	0.8426775
1.2562398881899727e-10	-0.042572465	-0.3031126	0.9209321	-0.41040155	-0.42133734	0.80542713
1.3415390756101657e-10	-0.004846152	-0.40498358	0.8781004	-0.3918686	-0.5165871	0.75742835
1.426297700882188e-10	0.033990785	-0.5009544	0.822237	-0.36779666	-0.6088792	0.6983233
1.5116321280437655e-10	0.078390926	-0.58929914	0.7534592	-0.33401343	-0.6981053	0.62800324
1.5953767592260994e-10	0.13134918	-0.66453326	0.6748501	-0.2874333	-0.7802353	0.54924345
1.676958275281442e-10	0.19568689	-0.7229881	0.5890457	-0.22529772	-0.8524993	0.4640943
1.7573346218922567e-10	0.27418774	-0.76159924	0.4972677	-0.14438632	-0.9125946	0.3730053
1.835817391471507e-10	0.36647242	-0.7757272	0.40273967	-0.0438943	-0.9557363	0.27820757
1.9135919286332044e-10	0.47204873	-0.7607356	0.3067922	0.07787104	-0.9768893	0.17982613
1.9911481315523303e-10	0.58725715	-0.7109177	0.2120071	0.2203433	-0.9684339	0.079007015
2.0671932941883838e-10	0.70254064	-0.62325764	0.12366084	0.3763656	-0.92223805	-0.020190148
2.1410958700619855e-10	0.80682987	-0.49888897	0.046229023	0.53552073	-0.8323144	-0.11387217
2.2146269766965562e-10	0.89133036	-0.33838367	-0.018320238	0.68863803	-0.6914206	-0.20033339
2.2887476365314553e-10	0.94511396	-0.1461246	-0.06659449	0.81994724	-0.49427652	-0.27521992
2.3624005816233055e-10	0.95783955	0.06338049	-0.094344296	0.90632296	-0.24805972	-0.33075902
2.435175742787965e-10	0.92617935	0.27308124	-0.09973196	0.9283457	0.029545052	-0.36006716
2.5076265906357497e-10	0.853091	0.46831787	-0.08276939	0.87483513	0.3143775	-0.35785985
2.5801241922095344e-10	0.7467288	0.63616186	-0.04468607	0.7463237	0.57606256	-0.32091346
2.6525834038504246e-10	0.61979866	0.7670789	0.011731323	0.5591523	0.7846385	-0.25025293
2.725957501954807e-10	0.48462877	0.8584671	0.08363718	0.3385369	0.9231512	-0.15025769
2.8012187541213797e-10	0.35282516	0.9109712	0.16816291	0.11299855	0.98673755	-0.027975738
2.8791993905394207e-10	0.23482415	0.92755723	0.2622335	-0.09166686	0.982102	0.10774528
2.960387999851796e-10	0.13940033	0.91290796	0.36226153	-0.25719276	0.9242913	0.24741182
3.042723885220887e-10	0.07396572	0.87405056	0.4616139	-0.3730827	0.8342613	0.3791681
3.127510492551378e-10	0.03840414	0.8167008	0.5582478	-0.44484574	0.72708446	0.49990198
3.2162767075628153e-10	0.031593833	0.74371016	0.65042686	-0.48016265	0.61105573	0.6084046
3.3104381422100784e-10	0.051820017	0.6555586	0.73577565	-0.48661265	0.4896965	0.7037236
3.4082905651055006e-10	0.09465841	0.5540352	0.80886346	-0.47211435	0.36686042	0.78234494
3.509110522369543e-10	0.1532516	0.43956447	0.86572707	-0.4451196	0.24253602	0.8427719
3.6096779789870427e-10	0.21813631	0.31629378	0.90231043	-0.41378754	0.11876189	0.88297427
3.709331952914452e-10	0.28222996	0.18730226	0.9176705	-0.38357162	-0.005170231	0.903217
3.8098283369680065e-10	0.3423137	0.054161943	0.9116391	-0.35683113	-0.13194887	0.9036887
3.912434796046987e-10	0.39728776	-0.0792838	0.8835212	-0.33398193	-0.2626208	0.8832153
4.012796736134439e-10	0.44611758	-0.20075956	0.8358098	-0.3140886	-0.39006692	0.84262556
4.110937688587768e-10	0.4926079	-0.30420256	0.771922	-0.29287475	-0.5122	0.7836146
4.210124626397481e-10	0.5429157	-0.38669485	0.69296473	-0.2635712	-0.6304687	0.7054604
4.306333723859875e-10	0.5989207	-0.43938133	0.6060496	-0.22048008	-0.7369977	0.6132517
4.398724837642247e-10	0.661379	-0.45922175	0.51679134	-0.15855356	-0.8276119	0.5111944
4.489769018587027e-10	0.7304352	-0.4446329	0.42735487	-0.07180643	-0.9000608	0.39963076
4.5792506373312407e-10	0.80161315	-0.39387658	0.34235728	0.042506155	-0.9471673	0.2815786
4.668818605215253e-10	0.86905783	-0.30567333	0.26480296	0.18689592	-0.95974505	0.15780783
4.756611860454312e-10	0.92239225	-0.18502975	0.20068118	0.3538091	-0.9255043	0.034527935
4.844715640398657e-10	0.9536769	-0.03637011	0.1524464	0.53578603	-0.8304553	-0.08631692
4.932755195553564e-10	0.95511705	0.12892973	0.12380643	0.71204144	-0.662371	-0.19734342
5.020226631964087e-10	0.92381537	0.2958505	0.116736	0.85204643	-0.41864252	-0.2886398
5.108587516565793e-10	0.8615737	0.4524468	0.13146691	0.9221212	-0.106533565	-0.34966925
5.198134485803013e-10	0.7752973	0.58601403	0.16709001	0.8886859	0.24218962	-0.36671516
5.287693457349976e-10	0.67756814	0.6860948	0.22009927	0.74148494	0.5684377	-0.32965368
5.37819786699523e-10	0.5800343	0.7504559	0.28667328	0.50385445	0.81842613	-0.23753555
5.469912113608516e-10	0.4935905	0.7800083	0.3622598	0.22740872	0.95750725	-0.100380704
5.563153261133465e-10	0.42619374	0.77839583	0.44227812	-0.031478085	0.98600143	0.06348375
5.659108380353173e-10	0.38207057	0.74988514	0.52308774	-0.23637748	0.9297905	0.23578395
5.758617584428806e-10	0.36309868	0.69794995	0.60084826	-0.37347254	0.8211022	0.40142447
5.860324621829703e-10	0.36835983	0.6266792	0.6702314	-0.44598436	0.6889264	0.5478629
5.964130728049655e-10	0.39367542	0.5391743	0.7274668	-0.46955723	0.5496194	0.6706729
6.072288731238593e-10	0.43438524	0.43592665	0.7700261	-0.460355	0.406297	0.7705539
6.186077107424998e-10	0.48541135	0.31850725	0.7941243	-0.4312723	0.25765738	0.84638184
6.303270394475968e-10	0.540171	0.19429848	0.7958767	-0.39418393	0.10452299	0.8944742
6.425377966760206e-10	0.5953997	0.06984475	0.7733078	-0.357171	-0.056993376	0.91268796
6.543349260759919e-10	0.64618844	-0.036178295	0.72998106	-0.32676247	-0.21469851	0.8992353
6.661611488536517e-10	0.69618756	-0.119011045	0.66901386	-0.30000988	-0.372017	0.8551036
6.778526326462833e-10	0.74683523	-0.16948819	0.5964528	-0.2707936	-0.52282447	0.7821008
6.888594573673989e-10	0.7961335	-0.18251711	0.52236676	-0.23148163	-0.6558695	0.6884656
6.995905008133313e-10	0.8436363	-0.1596743	0.45024657	-0.17185141	-0.7716731	0.5765696
7.103473543095899e-10	0.88588417	-0.10121745	0.38365108	-0.08108689	-0.8662475	0.44741583
7.208022802000719e-10	0.9153252	-0.0135765355	0.32954064	0.043987434	-0.9266781	0.30954918
7.30975030381142e-10	0.9267565	0.09397978	0.29112947	0.20254472	-0.94125956	0.16821453
7.410976362145652e-10	0.91709846	0.21292306	0.2697858	0.39057454	-0.8946003	0.026115147
7.512448370072407e-10	0.8856622	0.33243614	0.26668417	0.59204006	-0.7674063	-0.11005639
7.614127208185499e-10	0.8357239	0.44105724	0.28159818	0.77482754	-0.5451176	-0.22904243
7.714680239473855e-10	0.7748891	0.5286146	0.31210044	0.8920558	-0.23454764	-0.314662
7.810684836569059e-10	0.7137991	0.58886313	0.35287204	0.90242577	0.11756498	-0.3510202
7.901797588191519e-10	0.65956557	0.623464	0.39890927	0.7992942	0.45196277	-0.3329341
7.992422851252864e-10	0.61408055	0.6367271	0.44864058	0.5987673	0.7275516	-0.26057228
8.089113145121735e-10	0.57830966	0.629775	0.5026596	0.32521945	0.9117032	-0.13196623
8.189828969066767e-10	0.5567026	0.6026151	0.55650634	0.044618156	0.97208875	0.03677733
8.292769562451857e-10	0.550685	0.5576442	0.6057267	-0.1821945	0.9260191	0.2186499
8.39631946994264e-10	0.5588054	0.4986936	0.6465751	-0.33048066	0.81643903	0.3896348
8.504363914083758e-10	0.5789293	0.4265824	0.67771655	-0.41018677	0.67382324	0.5430165
8.61280750142324e-10	0.60717463	0.3476236	0.69568765	-0.43530938	0.52320504	0.6672376
8.722970357809124e-10	0.6404965	0.26546273	0.6996314	-0.42646438	0.37045163	0.76306385
8.836932265667095e-10	0.6770019	0.18396267	0.6887834	-0.3986422	0.21354671	0.8313413
8.955761470825816e-10	0.7153982	0.109183155	0.6627117	-0.36250046	0.04968254	0.8702511
9.08170293477467e-10	0.7555015	0.04845783	0.62155026	-0.32449728	-0.12510464	0.8760129
9.21015083521162e-10	0.7951174	0.012862184	0.5697068	-0.2879505	-0.30294684	0.844456
9.34145227821494e-10	0.83270144	0.008824576	0.51228535	-0.24742672	-0.47970375	0.7738671
9.471303411948608e-10	0.8636374	0.038373075	0.45753706	-0.1920854	-0.64220864	0.66812855
9.599296950471801e-10	0.88330644	0.09715902	0.4116954	-0.10686302	-0.7800185	0.5329107
9.72239471604984e-10	0.8876583	0.17452851	0.38003045	0.018203447	-0.8769884	0.37928036
9.841379792045914e-10	0.8759432	0.25934744	0.36401004	0.18712428	-0.9172953	0.21554074
9.95704155326281e-10	0.8501382	0.34140795	0.36329958	0.39275107	-0.88031393	0.05051608
1.0070899778543642e-09	0.8141644	0.41312802	0.3763401	0.6137174	-0.74263525	-0.105915524
1.0181755282729036e-09	0.7739971	0.46809474	0.40026635	0.8041274	-0.49286103	-0.23636399
1.0281620280900855e-09	0.73794925	0.5020201	0.4290297	0.9043379	-0.17502682	-0.31760883
1.0373830211229328e-09	0.707992	0.51929855	0.45953053	0.8966805	0.16497602	-0.3462403
1.0463751966536898e-09	0.68399024	0.52333975	0.49099588	0.7804478	0.48840973	-0.32057738
1.055596444918303e-09	0.66609323	0.515213	0.5231518	0.56740767	0.75380594	-0.23748997
1.06577926621202e-09	0.6549529	0.49344817	0.5564194	0.28068623	0.92302376	-0.091518626
1.0758155855291673e-09	0.6526623	0.46105558	0.5849497	0.015683725	0.9607631	0.08324866
1.0858563391002968e-09	0.6580593	0.42031887	0.6076533	-0.18630265	0.90453494	0.26256922
1.0960761662766563e-09	0.6699731	0.37309936	0.62357616	-0.31605154	0.7934952	0.430623
1.1062450676104418e-09	0.6865921	0.32328776	0.63152695	-0.38060468	0.6601752	0.5737422
1.1165062091949566e-09	0.70657164	0.27322847	0.6313734	-0.39922264	0.5190234	0.69079673
1.1269133111492228e-09	0.7287233	0.2258224	0.6231514	-0.38824254	0.37526292	0.78170633
1.1376227482879277e-09	0.7523133	0.18380326	0.6070918	-0.3601176	0.22762002	0.8472705
1.1486781761153224e-09	0.77646965	0.1507584	0.5839241	-0.32401943	0.07462818	0.8862653
1.160008373134796e-09	0.7999778	0.13047346	0.5553426	-0.28647083	-0.08326829	0.89654106
1.1716686343391186e-09	0.8215884	0.12576239	0.5234859	-0.24986108	-0.24577646	0.8759503
1.183591585631314e-09	0.8393489	0.13829945	0.49141225	-0.212273	-0.4086617	0.8226557
1.195643617438984e-09	0.8509579	0.16734931	0.46263307	-0.16674681	-0.56450206	0.7370533
1.2078178997435199e-09	0.8544707	0.2099394	0.44009623	-0.1014951	-0.70517105	0.62111753
1.2199621376973176e-09	0.8488014	0.26055717	0.42624497	-0.003939967	-0.8177722	0.4806173
1.2320881200668661e-09	0.83436435	0.31317452	0.4220966	0.13661148	-0.8866273	0.3219898
1.2442082438068467e-09	0.813015	0.36188284	0.42758277	0.3230042	-0.88921064	0.15360141
1.2561365254787737e-09	0.78818667	0.40119085	0.4413277	0.538984	-0.7991366	-0.0105874045
1.266972984836009e-09	0.76520824	0.42670247	0.4594481	0.73414433	-0.6152755	-0.14544497
1.2774141467907726e-09	0.7450096	0.44086286	0.48029503	0.8778884	-0.3391743	-0.24702334
1.2870602809847088e-09	0.7295402	0.4446537	0.5010129	0.92817116	-0.01478537	-0.30044255
1.2961859306712595e-09	0.7185647	0.44035852	0.520654	0.87378967	0.31367847	-0.30237627
1.3051989570309813e-09	0.71161747	0.42923424	0.5390248	0.7208114	0.605816	-0.2513656
1.314793202545362e-09	0.7085756	0.41087383	0.5564142	0.4829386	0.8286292	-0.14309666
1.324308745254319e-09	0.7098061	0.38732508	0.5705434	0.22764419	0.9355401	0.003487687
1.3339980318374224e-09	0.71494895	0.35947862	0.5810071	0.0013532533	0.9401223	0.17034166
1.3438269096825183e-09	0.72349894	0.32905436	0.58708704	-0.16542064	0.87152827	0.33702907
1.3539385946831592e-09	0.7349605	0.29746473	0.5883679	-0.2690044	0.759659	0.49167585
1.3642768555644613e-09	0.7485629	0.2669583	0.5845821	-0.3173403	0.6270165	0.62523353
1.3746452494548259e-09	0.7632286	0.24019635	0.57607317	-0.3252888	0.48800796	0.7324038
1.3851112807351157e-09	0.778229	0.21887603	0.5634829	-0.30820227	0.34594086	0.8138136
1.3957042352120291e-09	0.792794	0.20457514	0.54771936	-0.27764693	0.2008309	0.86971915
1.4065479904462013e-09	0.80621576	0.19849898	0.52976936	-0.2414702	0.05046105	0.8999399
1.4176058280102454e-09	0.8174671	0.20155212	0.5111011	-0.20486954	-0.10446663	0.9027924
1.4288743947056545e-09	0.8255161	0.21378407	0.49330598	-0.16943648	-0.26209006	0.87668437
1.4403508745659415e-09	0.8293989	0.2343034	0.47800058	-0.13257733	-0.41859367	0.8204075
1.4520624304091276e-09	0.8284036	0.26132187	0.4666316	-0.08700744	-0.5684379	0.73347867
1.4639161895218026e-09	0.8223474	0.29190964	0.46040455	-0.021900019	-0.7020956	0.6179681
1.4759815499009912e-09	0.81169116	0.32299876	0.45988607	0.07641842	-0.80821556	0.47652307
1.4882492587047134e-09	0.7976288	0.35123086	0.46511483	0.21967126	-0.8680263	0.31463632
1.500642339630717e-09	0.7820458	0.37351316	0.47540373	0.409808	-0.85411865	0.14191537
1.512947529359455e-09	0.7672266	0.38762403	0.48923922	0.6264696	-0.73561853	-0.025517557
1.524263435648498e-09	0.75567114	0.3928864	0.5037451	0.8119778	-0.5122314	-0.1594358
1.5345203957718375e-09	0.7477344	0.3913477	0.51722634	0.9205671	-0.21538533	-0.24650852
1.5439277770191958e-09	0.7429146	0.3850582	0.52903384	0.92996913	0.10934395	-0.28196883
1.5530920594099904e-09	0.740569	0.37498116	0.53938144	0.8366521	0.42696336	-0.26460502
1.562578487432945e-09	0.7405329	0.3611476	0.5483379	0.64592785	0.6996843	-0.18983725
1.5726998265466635e-09	0.7430072	0.34355956	0.5554186	0.38743463	0.8810096	-0.05683825
1.5829887084805738e-09	0.7478782	0.32395074	0.5596151	0.13335118	0.94153076	0.1115907
1.5931978574760073e-09	0.754627	0.30416584	0.5606083	-0.0636919	0.9063512	0.2864522
1.6032796115523825e-09	0.76265	0.28566238	0.5585362	-0.19055179	0.8155969	0.44829586
1.6131561754345964e-09	0.7712876	0.26971683	0.55380946	-0.25647646	0.7000175	0.586814
1.6231000100951609e-09	0.7802287	0.25684232	0.54677004	-0.27890354	0.5724605	0.70255786
1.6331755273982242e-09	0.78900766	0.24783488	0.5378705	-0.2716135	0.43868497	0.79495305
1.6433942075968418e-09	0.7970968	0.24336684	0.52772075	-0.24619511	0.3004386	0.8636222
1.6539243428535933e-09	0.80405176	0.24386998	0.5168801	-0.21123745	0.1553938	0.9086369
1.6646820966447068e-09	0.80922276	0.24952519	0.5062656	-0.17363891	0.0045959065	0.92792493
1.675631837599288e-09	0.8120821	0.25995865	0.49678323	-0.13743404	-0.15035899	0.9198333
1.6868318335027918e-09	0.8122641	0.2744023	0.4892152	-0.10281115	-0.30741486	0.88269454
1.6983714849691066e-09	0.80956167	0.29174224	0.48425582	-0.06559734	-0.46283385	0.8146425
1.7100709575244958e-09	0.8041576	0.31006953	0.4824897	-0.017867217	-0.60707456	0.71679324
1.7219973677424664e-09	0.79655945	0.3276472	0.48406842	0.05276519	-0.7313188	0.59087
1.7341806019065126e-09	0.787594	0.34271032	0.48885086	0.16000894	-0.82169205	0.44069502
1.7464522360622652e-09	0.77846646	0.35357812	0.49623	0.3116309	-0.85677063	0.2753374
1.758977068452285e-09	0.7701788	0.35940596	0.50547004	0.50739646	-0.8084489	0.102947176
1.7708505190716626e-09	0.76410216	0.35985553	0.5148479	0.7080091	-0.65734714	-0.049958866
1.7820757853198325e-09	0.7603782	0.3560374	0.5234269	0.86871773	-0.40551594	-0.16824885
1.7921611092104711e-09	0.7588067	0.34956852	0.53031456	0.94264555	-0.09853061	-0.23592326
1.8015646497771523e-09	0.75879085	0.34143993	0.53565764	0.9173514	0.22276834	-0.25215906
1.810736147608291e-09	0.760002	0.33204848	0.5396136	0.79550314	0.51941466	-0.21634936
1.820350604126379e-09	0.7624274	0.32121167	0.54224694	0.5878015	0.7594617	-0.12516244
1.830641618701455e-09	0.7661543	0.3092147	0.5432323	0.33136067	0.90118015	0.018818974
1.840978638725609e-09	0.77083975	0.2975951	0.5423066	0.099427685	0.9287054	0.18765764
1.8514576287242771e-09	0.776236	0.2871281	0.5395397	-0.073180966	0.8730425	0.3596838
1.861746676238141e-09	0.7818003	0.27887797	0.5352925	-0.17578855	0.7720893	0.5137396
1.8719460819431182e-09	0.78719777	0.27322882	0.5299456	-0.22298893	0.65056694	0.64432675
1.88232362895682e-09	0.7921943	0.27040485	0.52378565	-0.23119874	0.5175285	0.7519661
1.8928829151745533e-09	0.79641277	0.27066767	0.5172732	-0.21365918	0.3774733	0.83512646
1.903690353649255e-09	0.7995144	0.27406433	0.51088375	-0.18150294	0.23050776	0.8931611
1.9148352128516584e-09	0.80118436	0.2804485	0.5051168	-0.14314148	0.07539524	0.9246381
1.9262668978604945e-09	0.80116045	0.2893175	0.5005426	-0.104647286	-0.08633274	0.9269794
1.9379900687735645e-09	0.7993486	0.29988104	0.4976233	-0.06817203	-0.25191072	0.8978295
1.9500642964779894e-09	0.79583526	0.31115645	0.49668574	-0.030761836	-0.41682288	0.8349711
1.962495472999223e-09	0.7909409	0.32194877	0.49789304	0.01624102	-0.57292694	0.737438
1.9751922086556208e-09	0.785268	0.33096704	0.50113827	0.08643047	-0.70755565	0.6075591
1.988121259001199e-09	0.77956635	0.3371741	0.5060375	0.1955203	-0.80400056	0.45047218
2.0013848519584314e-09	0.77457047	0.3399126	0.5120456	0.35651222	-0.8376277	0.27290016
2.014888351256178e-09	0.77100086	0.33890086	0.51837957	0.5651678	-0.77121246	0.08891304
2.0272339333497607e-09	0.7693695	0.33500588	0.5236907	0.7648339	-0.591271	-0.06493615
2.038155707752509e-09	0.7692355	0.32970187	0.5275828	0.9022235	-0.32644823	-0.17137523
2.0480013360228835e-09	0.77004683	0.3238703	0.5302164	0.95009696	-0.018451376	-0.2268767
2.057339214380343e-09	0.77148235	0.31778118	0.53183424	0.90060776	0.29611006	-0.2313721
2.066693559415525e-09	0.7734297	0.31145984	0.5325469	0.75655967	0.58125204	-0.18271664
2.0768165807191284e-09	0.77598196	0.3047389	0.53229076	0.52832514	0.80287755	-0.074723445
2.0875901172649368e-09	0.7790746	0.29818916	0.53090274	0.26868504	0.9134461	0.08396031
2.097915930115546e-09	0.7822489	0.2929613	0.52861744	0.059319608	0.9136757	0.25318164
2.108081870255389e-09	0.78538465	0.28920242	0.52564085	-0.08467189	0.8464373	0.4156172
2.118056351011147e-09	0.78826654	0.28710204	0.5222471	-0.16646226	0.744394	0.55887705
2.1281132830012926e-09	0.7907765	0.28668827	0.518609	-0.20093141	0.6239128	0.6814074
2.138384235724126e-09	0.7927477	0.28800333	0.5149471	-0.20119646	0.49232015	0.7818785
2.148793343141726e-09	0.79399073	0.29095706	0.51156753	-0.17930688	0.353993	0.85812765
2.159522734886732e-09	0.7943849	0.29539454	0.5086915	-0.14506237	0.20724854	0.91013
2.1705082498438077e-09	0.79383534	0.30095565	0.5065992	-0.10650881	0.05319225	0.93558884
2.181848641596983e-09	0.7923269	0.30721617	0.5054887	-0.068493895	-0.10823477	0.93230027
2.193523617767068e-09	0.7899503	0.3135812	0.50550854	-0.032574784	-0.273343	0.8975416
2.2055161206930303e-09	0.7869221	0.31939355	0.5066911	0.0046767914	-0.43593577	0.8294776
2.2177425854266396e-09	0.78359234	0.32399368	0.50892085	0.05202963	-0.58640486	0.7286331
2.2303868352798603e-09	0.7803184	0.32691315	0.51200575	0.124213755	-0.7150079	0.59546554
2.243293101600297e-09	0.7775776	0.3277536	0.51556873	0.2361419	-0.8026928	0.43636295
2.256412665378506e-09	0.7757582	0.32645184	0.51916826	0.39735207	-0.8241013	0.26066482
2.269753026901492e-09	0.77510154	0.32324445	0.52236366	0.6014281	-0.74459976	0.08167861
2.281937223577389e-09	0.7755451	0.31914234	0.52456605	0.79106724	-0.5556069	-0.06506485
2.292794651561797e-09	0.7766416	0.31498292	0.5258018	0.91665494	-0.2864414	-0.16457948
