# t (s)	mx ()	my ()	mz ()	m.region1x ()	m.region1y ()	m.region1z ()
0	0	1	0	0	1	0
1.023e-12	-0.024338637	0.9995734	0.01572937	-0.02971195	0.9994098	0.017242767
2.047e-12	-0.048081838	0.9983187	0.031550813	-0.05874826	0.99767303	0.034601353
4.095e-12	-0.09362595	0.9934867	0.06336389	-0.11455613	0.990982	0.06950897
8.191e-12	-0.17651235	0.9756434	0.1272806	-0.2163399	0.96631485	0.13939208
1.544707636523921e-11	-0.2952844	0.9236237	0.23940425	-0.36236417	0.89507365	0.25982207
2.2641281410226193e-11	-0.37825674	0.85576284	0.34638125	-0.4652211	0.80389416	0.3704269
2.9961168814424435e-11	-0.43054986	0.7785556	0.44864202	-0.5332012	0.70263475	0.47088513
3.749329637760509e-11	-0.4557072	0.6962209	0.54546416	-0.573105	0.59747326	0.560405
4.528783759637322e-11	-0.4571603	0.61118215	0.6358125	-0.5912899	0.4918115	0.63845915
5.334943606176052e-11	-0.43857938	0.52459663	0.71824634	-0.5935432	0.38731652	0.70456165
6.164893790254831e-11	-0.40410066	0.43655908	0.7911573	-0.5850322	0.28446686	0.75832707
7.016229907914213e-11	-0.3580805	0.34613997	0.85314304	-0.57010067	0.18274781	0.7995725
7.890732349908374e-11	-0.30458882	0.25154415	0.9030633	-0.55206716	0.080844596	0.8281544
8.793246500544065e-11	-0.24726333	0.15071504	0.939623	-0.53326696	-0.022791985	0.84356713
9.728702087973852e-11	-0.18941131	0.042087223	0.96105826	-0.5151551	-0.12939034	0.8447604
1.0699259751568934e-10	-0.13390504	-0.07462927	0.96518004	-0.49819934	-0.23943129	0.83029014
1.1672462466439728e-10	-0.08403276	-0.19409326	0.95055705	-0.48201928	-0.34902787	0.7999457
1.256216115179139e-10	-0.042792432	-0.30312538	0.92082876	-0.4658566	-0.44808772	0.7586681
1.3415244894724e-10	-0.0050657103	-0.40499878	0.87799335	-0.44641244	-0.5414122	0.7074082
1.4262691250257034e-10	0.033763383	-0.5009477	0.82214284	-0.42005268	-0.6316733	0.6457532
1.511572524127438e-10	0.07814527	-0.58926034	0.75339866	-0.38271305	-0.71885	0.5736054
1.5952965263567418e-10	0.1310843	-0.66448534	0.67482185	-0.33161405	-0.799019	0.49374664
1.676885975054611e-10	0.195419	-0.72296375	0.5890225	-0.26431724	-0.86938363	0.4081189
1.7572725547367637e-10	0.2739209	-0.7616041	0.49724388	-0.17785753	-0.9274832	0.3170699
1.8357681724649397e-10	0.3662146	-0.7757636	0.40270853	-0.07174959	-0.9684086	0.22268593
1.9135413150163076e-10	0.47178724	-0.7608077	0.30676746	0.055522073	-0.98691344	0.124957666
1.9910982970698408e-10	0.587002	-0.7110326	0.21198153	0.20324053	-0.9751245	0.024850776
2.0671354927117467e-10	0.7022896	-0.6234306	0.123638235	0.3639127	-0.9246393	-0.073717944
2.1410520128748645e-10	0.80662787	-0.4990833	0.046179205	0.5268162	-0.82908374	-0.16696385
2.2145943266228672e-10	0.8911811	-0.3385832	-0.018397067	0.6821755	-0.68065876	-0.25306028
2.2887205654359544e-10	0.9450141	-0.14631958	-0.066695765	0.81302965	-0.47367775	-0.3273482
2.3623735296807204e-10	0.9577827	0.063198105	-0.094468266	0.89453036	-0.2158633	-0.38147956
2.4351450264319594e-10	0.9261556	0.27292243	-0.09987765	0.9056777	0.07327335	-0.40779927
2.5076008249148e-10	0.85307026	0.46822047	-0.082930505	0.8346829	0.36650068	-0.40027612
2.5801027928732696e-10	0.74668044	0.6361215	-0.04485186	0.68363404	0.6295982	-0.35539085
2.652551721376559e-10	0.61972487	0.76705474	0.01155897	0.47305772	0.8299759	-0.27481693
2.725928827289578e-10	0.48449397	0.85846186	0.08347582	0.23289816	0.95093197	-0.1642784
2.8011826503663535e-10	0.35264584	0.91095567	0.16800499	-0.0045928764	0.9904917	-0.032669466
2.879158684204815e-10	0.23459844	0.92752165	0.26208156	-0.21264718	0.959813	0.10949878
2.9603390892265516e-10	0.13913664	0.91284776	0.36210847	-0.3747416	0.87803596	0.25168127
3.0426723225557475e-10	0.07366194	0.87396514	0.46146262	-0.48393723	0.7689197	0.3819494
3.1274623469008614e-10	0.038060643	0.81658894	0.5581014	-0.54885215	0.6474325	0.49781826
3.216223195610127e-10	0.031212892	0.7435843	0.6502729	-0.57915545	0.52104163	0.5986827
3.310364818207214e-10	0.051392715	0.65544194	0.7356014	-0.5834967	0.3924283	0.6840781
3.408225300380621e-10	0.09419212	0.55391157	0.8086939	-0.5700171	0.26496863	0.7512341
3.5090522440643697e-10	0.15275112	0.43944457	0.8655604	-0.546494	0.13840494	0.7991712
3.609610633686136e-10	0.21759847	0.31620592	0.90214306	-0.5197252	0.0146905165	0.82666314
3.709268295911842e-10	0.28167197	0.18723616	0.91751134	-0.49363658	-0.10713605	0.83444595
3.809751679121142e-10	0.34173563	0.054140367	0.9114944	-0.46918702	-0.22996165	0.8228605
3.9123439577361414e-10	0.3967002	-0.079265416	0.88340175	-0.44533157	-0.35516003	0.7909906
4.012718904280549e-10	0.4455419	-0.20074785	0.8357089	-0.42009425	-0.47638407	0.7404704
4.1108453242102366e-10	0.49203467	-0.3041831	0.7718562	-0.3888682	-0.59190506	0.67319167
4.210000104177817e-10	0.542336	-0.38668206	0.6929522	-0.344483	-0.7030025	0.5882972
4.306232732840901e-10	0.5983648	-0.43943685	0.6060389	-0.2822667	-0.80170673	0.49110666
4.398613688463886e-10	0.6608305	-0.45934674	0.5168047	-0.19856825	-0.8829455	0.3858124
4.4896803204838914e-10	0.7299279	-0.4448393	0.42735022	-0.088162325	-0.94304156	0.27249277
4.5791627189797247e-10	0.80114734	-0.3941718	0.3423441	0.049862433	-0.97331023	0.15423572
4.668729417815612e-10	0.8686553	-0.306059	0.26476863	0.21610098	-0.9626636	0.031928383
4.756536804373757e-10	0.92208606	-0.18546551	0.2006006	0.39932647	-0.8981117	-0.08794517
4.844643513175019e-10	0.95347816	-0.036834348	0.15231621	0.58796173	-0.76489055	-0.2026675
4.932664254892057e-10	0.95503145	0.12844612	0.123623446	0.7554371	-0.55311066	-0.30369225
5.020132908140836e-10	0.92382437	0.2954346	0.11649136	0.86610943	-0.26662025	-0.37965006
5.108479650276134e-10	0.86163557	0.4521271	0.13116622	0.88391674	0.07653855	-0.4181388
5.198021279750413e-10	0.77533567	0.58582395	0.16675296	0.7814048	0.43009794	-0.40497288
5.287580628020012e-10	0.67751414	0.68601334	0.21975489	0.5666899	0.72575414	-0.3332683
5.378080478498766e-10	0.57986385	0.75042844	0.2863394	0.2835541	0.9147517	-0.20799129
5.469787289193562e-10	0.49330986	0.7799927	0.36194387	-0.0049821697	0.9806247	-0.0460346
5.562993366009024e-10	0.42583516	0.77837944	0.44195682	-0.24692176	0.94341254	0.13015883
5.658939615881116e-10	0.3816216	0.7498724	0.5227826	-0.41973558	0.83924985	0.30237916
5.758451197093289e-10	0.3625614	0.69794273	0.6005686	-0.523224	0.70120156	0.4579612
5.85807533185474e-10	0.3674194	0.62830186	0.6686793	-0.5692381	0.55705595	0.58563834
5.95713105401733e-10	0.3908307	0.54535115	0.7239456	-0.57805943	0.41797325	0.6852886
6.055416114556842e-10	0.42668158	0.45257935	0.7644782	-0.5658269	0.28602108	0.7595086
6.15661841452361e-10	0.47105786	0.34938663	0.7898664	-0.5424876	0.15495262	0.812517
6.264115479921676e-10	0.5211759	0.23565087	0.7977958	-0.5138068	0.01857629	0.84450996
6.378197486595689e-10	0.57362044	0.11667882	0.7847995	-0.48421425	-0.1250783	0.8520795
6.496346219745223e-10	0.62538224	0.0037544733	0.7495309	-0.45619518	-0.27346298	0.83175385
6.614106138003609e-10	0.67524964	-0.08915825	0.69530755	-0.4284818	-0.42001775	0.78341836
6.731544918896177e-10	0.72543406	-0.15349285	0.6267353	-0.39457193	-0.56235296	0.7083018
6.843814707471478e-10	0.77516025	-0.18167284	0.5528647	-0.34730425	-0.6911661	0.61315167
6.951801920765228e-10	0.8236533	-0.17364314	0.4795744	-0.27847043	-0.8032976	0.50256115
7.058989989995289e-10	0.86874056	-0.1299444	0.41019592	-0.17837346	-0.8957256	0.37732258
7.165058897885983e-10	0.9043996	-0.053396616	0.35023242	-0.041301265	-0.95759547	0.24173221
7.267696448087474e-10	0.9238836	0.04679951	0.30506256	0.12950519	-0.97438097	0.10340669
7.368863052747724e-10	0.92341113	0.16198938	0.27640048	0.3293474	-0.93055385	-0.034997895
7.470923041939284e-10	0.9008256	0.2834909	0.26553696	0.54571724	-0.8041789	-0.16979578
7.572140934132536e-10	0.85817593	0.39750397	0.27306157	0.74228436	-0.57993627	-0.28818882
7.671572922436978e-10	0.80194324	0.4933682	0.29690892	0.87059104	-0.2627707	-0.37473136
7.765771815880786e-10	0.74239624	0.56333035	0.33214766	0.8860282	0.09946219	-0.41277796
7.853682804600868e-10	0.68747985	0.607767	0.3734221	0.7823062	0.44159493	-0.3966375
7.940055073461043e-10	0.6390521	0.6315348	0.41912124	0.577633	0.72325593	-0.3270263
8.03142172328101e-10	0.5976989	0.63646805	0.47004575	0.29588518	0.913145	-0.2019236
8.127529936651211e-10	0.5677555	0.6217272	0.5232706	-0.0022022692	0.9784046	-0.033781115
8.22147385502402e-10	0.55266035	0.5905708	0.57205224	-0.24014725	0.9355011	0.14109701
8.317500633838745e-10	0.55080795	0.5447712	0.61606294	-0.4074131	0.8271318	0.309306
8.413051892327515e-10	0.56052995	0.48822704	0.6519604	-0.5040954	0.691406	0.45449603
8.510602361103296e-10	0.5796013	0.42227727	0.67891836	-0.549301	0.5462648	0.57597685
8.606661676749926e-10	0.6046037	0.35230613	0.69488555	-0.5591441	0.40592694	0.6695823
8.704931196242171e-10	0.63399017	0.27895594	0.6998712	-0.54825205	0.2670756	0.7404542
8.808743228939019e-10	0.6670075	0.20359296	0.69277894	-0.5250147	0.12448542	0.78995097
8.919878785967783e-10	0.70292896	0.13038546	0.67205006	-0.49512997	-0.025592703	0.81563187
9.034284212165446e-10	0.73959315	0.068719886	0.6385034	-0.4635966	-0.17881273	0.81354517
9.151472577684983e-10	0.77632666	0.025469854	0.59440327	-0.43086436	-0.33440134	0.78201145
9.272128425782759e-10	0.8124783	0.006602178	0.5429193	-0.39233947	-0.4911908	0.71923137
9.39273262290589e-10	0.84502685	0.016332274	0.49022692	-0.3400775	-0.64034563	0.6272134
9.512013987673533e-10	0.87047505	0.05373673	0.44196552	-0.2630313	-0.77367353	0.5099182
9.631367646613508e-10	0.8852257	0.115119234	0.40222532	-0.14815201	-0.88211316	0.37007862
9.750323034903585e-10	0.8857417	0.19317089	0.37494904	0.013642472	-0.94830394	0.21338168
9.865185631711197e-10	0.8712956	0.27570826	0.36260065	0.21616681	-0.9489878	0.052131724
9.974218761892442e-10	0.84504354	0.35207972	0.36424834	0.43884945	-0.8652819	-0.101731755
1.0076263003340005e-09	0.81224823	0.41530806	0.37696153	0.64745647	-0.6896209	-0.23592836
1.0175291656596457e-09	0.7764709	0.46465835	0.39819968	0.80872136	-0.41891986	-0.34320605
1.0269420684007243e-09	0.74235594	0.49821335	0.42473054	0.8775579	-0.083075926	-0.4079075
1.0357778194728055e-09	0.7129748	0.516974	0.45348534	0.8326352	0.26357812	-0.42062673
1.0445058161232157e-09	0.6884729	0.52341247	0.4838365	0.67623025	0.5800806	-0.37799546
1.0533948277603332e-09	0.6695327	0.5182637	0.51503205	0.43022612	0.81975764	-0.27869314
1.0630069184058149e-09	0.6567303	0.5007192	0.5472124	0.12911849	0.9499406	-0.12279295
1.0727860204452641e-09	0.6519778	0.47200564	0.5764494	-0.1453832	0.95369565	0.06104299
1.0821767078385544e-09	0.6546411	0.4362398	0.59971976	-0.34100977	0.87317085	0.23669606
1.091905370576415e-09	0.6637062	0.3930899	0.617702	-0.468131	0.7451335	0.40042847
1.1016527794831614e-09	0.67779636	0.34615386	0.62869424	-0.532674	0.60099626	0.53777903
1.1114349134234345e-09	0.6955153	0.29796696	0.63229376	-0.5538011	0.45556778	0.647142
1.1209556390571519e-09	0.71496046	0.25257665	0.6287061	-0.5485473	0.3181444	0.72757745
1.1304522251265033e-09	0.73552126	0.21122374	0.61859334	-0.52937156	0.18529154	0.7842509
1.1402527270709243e-09	0.757126	0.17505175	0.6021373	-0.5028405	0.05120703	0.8197904
1.1506007774565082e-09	0.7795693	0.14640535	0.5794315	-0.47254652	-0.088563286	0.8332632
1.1612623765729399e-09	0.80143535	0.12920459	0.5521141	-0.441183	-0.23136537	0.8220825
1.1721048036697719e-09	0.8213136	0.12585837	0.5224525	-0.40829158	-0.37479407	0.7852067
1.1830993178692246e-09	0.83773506	0.13726197	0.49287546	-0.36981866	-0.51639026	0.7223544
1.1945294836994869e-09	0.84925544	0.16370998	0.465251	-0.31682917	-0.65566933	0.6313501
1.2060439315593647e-09	0.8536505	0.20257641	0.4430434	-0.23994361	-0.78155184	0.51579505
1.2176013535989673e-09	0.8498631	0.24967755	0.42830354	-0.1282417	-0.88348365	0.37951088
1.2291012899392802e-09	0.8380426	0.29952326	0.4222274	0.025538193	-0.94570434	0.2288086
1.2405754396727486e-09	0.81954134	0.347081	0.42488843	0.22280873	-0.9475454	0.07009223
1.2513621379688428e-09	0.7981159	0.3857749	0.43472955	0.43810493	-0.8702149	-0.07866767
1.261502929373272e-09	0.7766163	0.41425157	0.44941154	0.64349365	-0.70652884	-0.2083816
1.2713953446570067e-09	0.75637007	0.43322462	0.4675284	0.8096112	-0.45103523	-0.31299716
1.2809114824457204e-09	0.7391153	0.44271114	0.48718557	0.89304537	-0.12521191	-0.37836698
1.28988187935251e-09	0.7258475	0.44380152	0.50654423	0.86684483	0.22012748	-0.39408743
1.298466490879336e-09	0.7164418	0.43805376	0.52482796	0.7339481	0.5347481	-0.35788232
1.3072164938094406e-09	0.71046066	0.42595834	0.54230666	0.5097975	0.7849399	-0.26818773
1.3160240902637596e-09	0.7081827	0.40827402	0.5578873	0.24242161	0.9293561	-0.13417056
1.3250424854354827e-09	0.7095809	0.3855705	0.5710008	-0.017196113	0.9641613	0.028749669
1.33404340666578e-09	0.71436375	0.35960805	0.58063793	-0.22287974	0.912323	0.19571796
1.3430450702784042e-09	0.7219928	0.3317874	0.58644384	-0.363242	0.8095887	0.35085577
1.3522395504611101e-09	0.73207897	0.3029852	0.58824635	-0.44654462	0.6811852	0.48813456
1.3615791233030523e-09	0.7440097	0.27490082	0.5858637	-0.4846311	0.54411995	0.6026728
1.3708235900083482e-09	0.75683564	0.24974994	0.57960457	-0.49153525	0.40954083	0.69174886
1.3802163890529167e-09	0.7702787	0.22826083	0.5697684	-0.47957858	0.27592307	0.75912285
1.3900120812594751e-09	0.78410256	0.21146014	0.55651885	-0.4562208	0.13935839	0.8062691
1.4000122753618652e-09	0.797345	0.2012072	0.54081213	-0.42745784	0.0015948733	0.8313377
1.4101896085851524e-09	0.8092215	0.19851193	0.52371883	-0.39683214	-0.13775922	0.8336931
1.4204834036386454e-09	0.8188777	0.20376785	0.5065448	-0.36545056	-0.27771202	0.81274647
1.4309504768542842e-09	0.82557875	0.21675235	0.49047124	-0.3313204	-0.4176672	0.7678144
1.441652577760055e-09	0.8286043	0.23671536	0.47668833	-0.28941867	-0.5556163	0.69799596
1.4525576784369473e-09	0.82738394	0.26206782	0.46641913	-0.23200391	-0.6864084	0.60343724
1.4636049393972425e-09	0.8217989	0.29045165	0.4606046	-0.14935288	-0.8019336	0.48587298
1.4748778619461587e-09	0.8121834	0.3194676	0.45972547	-0.030004773	-0.8912303	0.34684977
1.4862859432730835e-09	0.7995447	0.3461853	0.46385202	0.13329513	-0.9352151	0.19169243
1.497843248143144e-09	0.78528315	0.36822212	0.47252077	0.34016573	-0.9076999	0.027239956
1.5087368174061291e-09	0.77198607	0.3828885	0.4838907	0.5564542	-0.7887581	-0.12429346
1.5188581023147935e-09	0.7608855	0.3905538	0.49627355	0.7437571	-0.5783193	-0.24938335
1.528442184391975e-09	0.7522072	0.3924051	0.50874853	0.86645925	-0.2885037	-0.33895022
1.5376229411001388e-09	0.74596053	0.38943064	0.5206446	0.89229524	0.049258117	-0.38268292
1.546402696485005e-09	0.7420495	0.38257706	0.53137004	0.80843586	0.3825294	-0.37331417
1.5552881897235595e-09	0.74019516	0.37211594	0.54105115	0.6208607	0.6726271	-0.30728433
1.5646628493523264e-09	0.74050224	0.35790518	0.5494872	0.35389304	0.8758077	-0.18243617
1.5742876756584954e-09	0.7431071	0.3408493	0.5558096	0.07247403	0.9567202	-0.015405234
1.5837594516502888e-09	0.7476882	0.32270873	0.5594172	-0.15824085	0.93129075	0.16221668
1.5933007710536054e-09	0.7539624	0.30423322	0.56029624	-0.32138678	0.8390301	0.33327124
1.602861700198622e-09	0.7614776	0.28665426	0.5584492	-0.41803715	0.71396315	0.48401138
1.612529494383464e-09	0.76984066	0.27089712	0.5540248	-0.46306905	0.57646346	0.61018103
1.6220901601374828e-09	0.77838385	0.25821418	0.54748785	-0.4723645	0.43987975	0.70857483
1.6316076313777513e-09	0.7866955	0.24914911	0.53932583	-0.4605418	0.3064185	0.78199965
1.6412004006750815e-09	0.7944339	0.24407446	0.5299989	-0.43729413	0.17426543	0.833042
1.6510621566880803e-09	0.8012819	0.24332297	0.51991445	-0.40844882	0.03972963	0.8628952
1.6612327260247644e-09	0.80674416	0.24719657	0.5097102	-0.37776116	-0.098530576	0.8705358
1.67153311648649e-09	0.81025565	0.2554849	0.5003044	-0.3473858	-0.23804802	0.8547739
1.6820336940540409e-09	0.8114895	0.26764673	0.49234834	-0.316083	-0.3785527	0.8147284
1.6927406791004357e-09	0.81022847	0.282762	0.48648524	-0.27984008	-0.5175232	0.7496407
1.7036671528652243e-09	0.8064686	0.29960167	0.4832181	-0.2314822	-0.650858	0.65933156
1.7146892513066076e-09	0.80055404	0.31650984	0.48284215	-0.16201685	-0.7706951	0.54611635
1.7258533854036003e-09	0.79304594	0.33206904	0.4853317	-0.06070159	-0.8680144	0.4123183
1.7372304519338277e-09	0.78467286	0.34500277	0.49045923	0.08260327	-0.92832506	0.26117676
1.7488053178638587e-09	0.7763493	0.35416391	0.49773818	0.27165928	-0.9286735	0.09911787
1.7604042403206825e-09	0.7690797	0.35878375	0.5063317	0.49341038	-0.84036386	-0.06179196
1.7711942084086177e-09	0.7638608	0.35894248	0.51474357	0.700217	-0.6547982	-0.19775707
1.781230380755915e-09	0.76060945	0.3557601	0.52232635	0.85118425	-0.38354707	-0.29790214
1.7907423122579054e-09	0.7590001	0.35014966	0.52884996	0.9122074	-0.052815937	-0.35390192
1.7996651363424608e-09	0.7587262	0.34296688	0.5340721	0.8646357	0.2847814	-0.35861045
1.8083562104641683e-09	0.75951195	0.33455098	0.53810525	0.7146161	0.5865769	-0.3109093
1.8172935818485531e-09	0.7613111	0.3248496	0.54100275	0.4809465	0.8166612	-0.20963205
1.8260839532658689e-09	0.76397794	0.3147475	0.5425059	0.22326261	0.93606174	-0.07085819
1.8349187437450158e-09	0.7674472	0.3045768	0.5426223	-0.0131242545	0.9548074	0.088427044
1.8440019795373291e-09	0.7716712	0.2946954	0.5413117	-0.20104216	0.89706564	0.25309
1.8530812034212357e-09	0.7763325	0.2859703	0.5386651	-0.325813	0.79444087	0.40430647
1.8623828496740815e-09	0.7812904	0.27873242	0.53476983	-0.3972454	0.66866887	0.53768146
1.8718213748423657e-09	0.7862158	0.2735466	0.52987456	-0.42675263	0.5349112	0.6483508
1.8812988047815797e-09	0.7907643	0.27078262	0.52434355	-0.42775977	0.40093958	0.7350363
1.8910034604631296e-09	0.7947322	0.27058366	0.51842654	-0.4112937	0.26569876	0.8000122
1.9010249024091706e-09	0.797843	0.2730824	0.512467	-0.3849623	0.1274935	0.84341204
1.9112423891783787e-09	0.79977727	0.27816415	0.5069696	-0.35465005	-0.012925254	0.8639444
1.9216116722869403e-09	0.8003362	0.28544176	0.50237083	-0.32372153	-0.15530203	0.8608597
1.9322661744183853e-09	0.7994177	0.2944593	0.49898884	-0.29228973	-0.30067307	0.83290225
1.943076083337584e-09	0.79705334	0.3043805	0.49715608	-0.258158	-0.44505617	0.7793005
1.954140841117926e-09	0.793401	0.31443802	0.49702075	-0.21499686	-0.5859027	0.6990851
1.9653815419913636e-09	0.78881776	0.32366356	0.498605	-0.15381417	-0.7161525	0.5931935
1.9767883469183867e-09	0.78377926	0.33122107	0.50174814	-0.06332291	-0.82647604	0.46361664
1.988390741980578e-09	0.7788193	0.3364566	0.50615007	0.06792571	-0.90261126	0.31346208
2.0002477061450686e-09	0.7744738	0.33893105	0.5114035	0.24763724	-0.9218961	0.14754434
2.0121439386967098e-09	0.77128726	0.33848828	0.5168844	0.46617046	-0.85310155	-0.021715062
2.023178174545346e-09	0.7695997	0.33571666	0.521682	0.6766569	-0.6832742	-0.16824594
2.033637304291848e-09	0.7691448	0.33137724	0.52562594	0.83914065	-0.41472545	-0.28158748
2.0432055654464765e-09	0.7695981	0.32631624	0.5285074	0.908448	-0.08901853	-0.34640864
2.0521459300531994e-09	0.77063066	0.32094	0.5304584	0.8701244	0.24774353	-0.35880125
2.0609840325482254e-09	0.7721034	0.31525484	0.53162473	0.72601426	0.5578055	-0.3164992
2.070280005485975e-09	0.77404475	0.30913508	0.5320073	0.4882985	0.8021579	-0.21473342
2.0799984965402073e-09	0.77644193	0.3029117	0.53148526	0.20679599	0.93391603	-0.061040584
2.089823843213632e-09	0.779173	0.29720056	0.53004736	-0.04781538	0.9469086	0.1179456
2.099655740561688e-09	0.7820873	0.29247534	0.5278	-0.23612164	0.87584054	0.29603416
2.1094846935336834e-09	0.7850033	0.28907493	0.5249135	-0.3529975	0.7598033	0.4564451
2.119122652706175e-09	0.7876726	0.2872362	0.5216706	-0.41062528	0.6284438	0.58909315
2.1288016710295277e-09	0.78998107	0.2869653	0.5182359	-0.42846304	0.49244237	0.6960029
2.1384161827820666e-09	0.7917516	0.28822505	0.5148825	-0.42115992	0.35824007	0.77707535
2.1482518839240985e-09	0.7929031	0.29094204	0.5117433	-0.3993782	0.22261155	0.835821
2.1581159137694093e-09	0.793313	0.29486752	0.50909686	-0.37102234	0.087458104	0.87161255
2.1682316695757265e-09	0.79293674	0.2997963	0.5070766	-0.34036085	-0.05107924	0.88517785
