# t (s)	mx ()	my ()	mz ()	m.region1x ()	m.region1y ()	m.region1z ()
0	0	1	0	0	1	0
1.023e-12	-0.024334205	0.99957347	0.015728917	-0.02737138	0.99948084	0.01699467
2.047e-12	-0.04807301	0.99831927	0.0315499	-0.054086383	0.99795455	0.034081895
4.095e-12	-0.0936085	0.9934888	0.06336205	-0.10535036	0.99208015	0.06839877
8.191e-12	-0.17647858	0.97565114	0.12727715	-0.19862631	0.97044545	0.13704921
1.5447299509631776e-11	-0.29522878	0.92364573	0.2394033	-0.33206636	0.90788525	0.25586793
2.264153263723789e-11	-0.37818027	0.85580397	0.34638342	-0.42551696	0.82740235	0.3664837
2.996075724011857e-11	-0.4304511	0.7786249	0.4486422	-0.4860481	0.7373225	0.46908167
3.749121728917627e-11	-0.45558918	0.6963288	0.54545593	-0.5191493	0.6429024	0.5630403
4.5287273281272365e-11	-0.4570263	0.61129236	0.6358393	-0.52998906	0.5470159	0.6477989
5.335012110540526e-11	-0.4384188	0.52470976	0.7183049	-0.52348405	0.45112437	0.72256035
6.164866106145019e-11	-0.40391582	0.43669537	0.791229	-0.50441486	0.35555312	0.78654796
7.016095630428794e-11	-0.35787046	0.3462963	0.8532318	-0.47717175	0.2595866	0.839215
7.890773638490072e-11	-0.30433357	0.25168493	0.90318716	-0.44544098	0.16167319	0.8801285
8.793341984005652e-11	-0.24696845	0.15084666	0.93977237	-0.41223046	0.06006837	0.90852475
9.728467106891036e-11	-0.1891012	0.04224807	0.9612243	-0.37996763	-0.046643667	0.9231048
1.0699317596141667e-10	-0.1335461	-0.07451918	0.96536964	-0.3503774	-0.15912738	0.92207605
1.167244304225647e-10	-0.083653755	-0.19399391	0.9507636	-0.32485193	-0.2729925	0.904339
1.256219998036949e-10	-0.042396527	-0.3030531	0.9210432	-0.3038623	-0.3770472	0.87347156
1.34151766693225e-10	-0.004668098	-0.404932	0.87821853	-0.28356412	-0.475569	0.83092505
1.4262720797814275e-10	0.034165606	-0.5009073	0.82236236	-0.26011875	-0.5709706	0.77646554
1.5116243536887534e-10	0.07857071	-0.58927774	0.75357145	-0.2293207	-0.66298294	0.70992386
1.5953584584950278e-10	0.13151589	-0.66450715	0.6749711	-0.18779226	-0.7473343	0.6339788
1.6769394105282648e-10	0.19584443	-0.72296476	0.58916557	-0.13229893	-0.8212995	0.5506962
1.7573166699759082e-10	0.2743366	-0.76157725	0.49738374	-0.05928312	-0.8827058	0.46068114
1.835795829440955e-10	0.36660686	-0.77570397	0.402857	0.032478992	-0.9269638	0.36634508
1.9135714428701151e-10	0.47217396	-0.7607101	0.30690545	0.14483407	-0.94937515	0.26803663
1.991124124981317e-10	0.58736587	-0.71089226	0.21212278	0.27733618	-0.94280124	0.16716765
2.0671689306878443e-10	0.7026367	-0.6232315	0.123776264	0.42323285	-0.89977366	0.06804553
2.141078703589823e-10	0.806923	-0.4988496	0.046338547	0.57263154	-0.815146	-0.02527095
2.2146150258024963e-10	0.89141345	-0.33833334	-0.018210366	0.71700245	-0.68287694	-0.11106722
2.288749825737601e-10	0.94518656	-0.14604293	-0.06648437	0.8422599	-0.49887958	-0.18532115
2.362399224456162e-10	0.95789206	0.0634356	-0.094220884	0.92813796	-0.27046534	-0.24105272
2.435172086401092e-10	0.9262269	0.27310103	-0.09959869	0.958373	-0.013406117	-0.27262804
2.5076331532390294e-10	0.85313857	0.46832907	-0.08262707	0.9239095	0.25220436	-0.27610764
2.580132263025792e-10	0.7468036	0.63614154	-0.044541243	0.82475525	0.501675	-0.24917537
2.65259539925712e-10	0.6199135	0.7670428	0.011874097	0.6728274	0.7103689	-0.19260305
2.725974745107784e-10	0.48479033	0.85843265	0.08377462	0.4868267	0.8634773	-0.109374285
2.8012318638991953e-10	0.35304958	0.91094995	0.16828197	0.28884596	0.9543692	-0.004217345
2.8791988432794323e-10	0.23511392	0.9275687	0.2623221	0.10071883	0.984768	0.116682775
2.9603754660926315e-10	0.1397325	0.91296816	0.36232534	-0.059444524	0.9634941	0.24608283
3.042717976151174e-10	0.07431024	0.87415147	0.461682	-0.17778212	0.9056013	0.37336555
3.1275066976022703e-10	0.038763333	0.81683564	0.5583202	-0.255055	0.8244392	0.49502087
3.2162723661046414e-10	0.031970195	0.7438718	0.65050554	-0.2950823	0.72828233	0.6091348
3.310412669968349e-10	0.052211046	0.6557577	0.73584735	-0.3026575	0.6212224	0.71397614
3.4082706877214667e-10	0.095075905	0.55423546	0.808955	-0.2841763	0.5073335	0.8049565
3.5091002715538704e-10	0.15370528	0.43974823	0.86583847	-0.24809551	0.38707402	0.8795123
3.6096811060507394e-10	0.21863084	0.31644332	0.9024367	-0.20413148	0.2628002	0.9343413
3.709333750730614e-10	0.28275254	0.1874268	0.9178015	-0.1598513	0.13440119	0.9689581
3.8098339270447e-10	0.3428615	0.054249264	0.9117701	-0.119541265	-0.00024565606	0.98331136
3.9124480935368895e-10	0.39785454	-0.07923938	0.8836436	-0.08567827	-0.1413565	0.97594684
4.0128226308852213e-10	0.44669676	-0.20075561	0.8359132	-0.059601616	-0.2799274	0.9468134
4.1109668402998667e-10	0.49318892	-0.30421376	0.7720054	-0.037923675	-0.41224727	0.8975099
4.2101398886146495e-10	0.5434863	-0.3866911	0.6930398	-0.014345514	-0.5387023	0.82762235
4.3063436147722693e-10	0.5994818	-0.43935487	0.60611165	0.01717726	-0.65029013	0.7420311
4.398744868633517e-10	0.6619384	-0.459158	0.51682854	0.06263603	-0.74291563	0.6452394
4.489807353758984e-10	0.7309955	-0.4445023	0.42736447	0.12831435	-0.8151555	0.53814304
4.579308308523626e-10	0.8021643	-0.39364725	0.34234852	0.21752433	-0.8612093	0.42417866
4.668858366698772e-10	0.8695505	-0.30536228	0.26482216	0.33275604	-0.87399244	0.30467817
4.756655304468637e-10	0.9228165	-0.18461984	0.20072353	0.46806332	-0.8441154	0.18604265
4.844751606974812e-10	0.95399827	-0.03589695	0.15253401	0.6172471	-0.76132077	0.07046414
4.932780060617528e-10	0.9553181	0.12941834	0.123950906	0.76386714	-0.61727136	-0.035222474
5.02025360501375e-10	0.9238939	0.29632446	0.11694132	0.8847817	-0.41128713	-0.12276803
5.108625847446232e-10	0.8615455	0.4528602	0.13173775	0.9557506	-0.14868939	-0.18460697
5.198174404790266e-10	0.77522635	0.5862994	0.1674156	0.9521095	0.1489714	-0.21113639
5.287729737588552e-10	0.67753786	0.68623686	0.22045392	0.86293685	0.44093817	-0.19507271
5.378232775965032e-10	0.58010745	0.7504904	0.2870315	0.6980457	0.68892217	-0.13476278
5.469936794725681e-10	0.4938046	0.7799886	0.36259276	0.48732948	0.861497	-0.034806516
5.563182490267698e-10	0.42653129	0.7783729	0.44258755	0.2703973	0.9472205	0.09430245
5.659108849058884e-10	0.38252512	0.74989516	0.523345	0.08065274	0.95460343	0.2403869
5.75864375357807e-10	0.36363268	0.69797397	0.6011012	-0.060753692	0.9021621	0.39146158
5.860322130189162e-10	0.36896336	0.62673986	0.67044455	-0.14530134	0.8119419	0.53458613
5.964153843138547e-10	0.39434832	0.5392141	0.72767496	-0.17941527	0.7003405	0.6629052
6.072300564308279e-10	0.43511367	0.4359596	0.77020675	-0.17438221	0.5733134	0.77440566
6.186768844306887e-10	0.48651028	0.3177893	0.79435444	-0.14112295	0.43062267	0.86641586
6.30807388298817e-10	0.54321766	0.18921375	0.79556596	-0.091284506	0.27058995	0.9337521
6.430149200915664e-10	0.59835386	0.06514522	0.7720176	-0.0393925	0.10084847	0.96901625
6.548074083377757e-10	0.64906687	-0.04010037	0.7278761	0.0045914305	-0.06867046	0.97096956
6.66638712728795e-10	0.69911593	-0.1218383	0.6662236	0.040745813	-0.23881239	0.9405861
6.782971888869678e-10	0.7497086	-0.17075786	0.5934545	0.07251515	-0.39933476	0.8794529
6.892853913334949e-10	0.7989688	-0.18227433	0.5193509	0.106885046	-0.536817	0.795288
7.000141299500111e-10	0.8463563	-0.15789579	0.4473405	0.15418136	-0.6508623	0.6912257
7.107775410621334e-10	0.8882614	-0.09786932	0.38104054	0.22457625	-0.7371068	0.5692027
7.212192510789728e-10	0.9169994	-0.009047566	0.32754156	0.32108554	-0.7842575	0.43890822
7.313870376100854e-10	0.92751837	0.09934666	0.2898423	0.44271886	-0.784468	0.3064337
7.415147224646846e-10	0.9167911	0.21875864	0.26929858	0.5847574	-0.72764057	0.17572412
7.516562404014453e-10	0.8843159	0.33806774	0.2670593	0.73263806	-0.6027266	0.054323174
7.618339253539671e-10	0.83346653	0.44612306	0.28282338	0.8618654	-0.4040322	-0.04791674
7.718796268764253e-10	0.7721913	0.5325254	0.31401363	0.9399386	-0.14364798	-0.11842626
7.818602254936654e-10	0.70866174	0.5933701	0.3571245	0.9409383	0.15295777	-0.14785616
7.917376837974246e-10	0.65085226	0.6275762	0.4078309	0.8540556	0.44272286	-0.12973876
8.014512705670034e-10	0.6046015	0.6371055	0.461611	0.69483423	0.6796223	-0.06526589
8.117286435396227e-10	0.570784	0.6240501	0.51869965	0.4841471	0.8435519	0.045200016
8.226389470543327e-10	0.5531633	0.5883248	0.57535315	0.26629657	0.9115043	0.19223776
8.338907511474376e-10	0.55330145	0.53270197	0.62561417	0.09164533	0.8894036	0.35387415
8.450450514127947e-10	0.5683732	0.46348807	0.6641592	-0.015564257	0.80907845	0.5064403
8.5676956220229e-10	0.59553885	0.38078445	0.6902202	-0.06437194	0.6913148	0.6471938
8.696597170943731e-10	0.6332021	0.28480846	0.7002437	-0.06335412	0.54188216	0.772236
8.835148586816084e-10	0.6774373	0.18491752	0.68920267	-0.025223548	0.36718738	0.8686066
8.977837602061997e-10	0.72354317	0.09668837	0.6564275	0.029655395	0.17572875	0.92466104
9.119538366695544e-10	0.7684269	0.034708463	0.6070034	0.08363677	-0.021400278	0.93539435
9.258465167008867e-10	0.8105205	0.0072672116	0.54859334	0.13047682	-0.21300593	0.90188116
9.39059745961521e-10	0.8464768	0.016161386	0.49074697	0.17365056	-0.38289812	0.83091944
9.51952645213254e-10	0.8736606	0.05760511	0.4387583	0.22508194	-0.52551526	0.728629
9.64570596436155e-10	0.8878288	0.12490751	0.39787588	0.29689637	-0.63102525	0.602749
9.76758039691083e-10	0.8859788	0.20688927	0.3719747	0.39602908	-0.68805915	0.46430963
9.88497182589953e-10	0.86846334	0.29181835	0.3619426	0.5216187	-0.6869184	0.3235834
1.0000134684803738e-09	0.83796644	0.37115145	0.3667772	0.6658244	-0.6169756	0.1878521
1.0113055967060305e-09	0.7993808	0.4371786	0.3845023	0.80749106	-0.46951923	0.06786557
1.0222172435890005e-09	0.7591059	0.48476025	0.41162884	0.914137	-0.25007564	-0.02343803
1.0325595926678116e-09	0.72290146	0.51278245	0.44378456	0.955408	0.013745345	-0.07533494
1.0424090591229084e-09	0.69361514	0.52362055	0.4776849	0.91862893	0.28474316	-0.0836542
1.0519813669321952e-09	0.67212003	0.5200653	0.51138663	0.8096162	0.52710414	-0.048734587
1.0619132453531315e-09	0.6581833	0.50318664	0.54491216	0.64168686	0.7187151	0.029589722
1.0724709568410848e-09	0.6528354	0.4727642	0.57668996	0.44426548	0.8336846	0.14805622
1.0831033378977646e-09	0.6564443	0.43192762	0.60268044	0.26854432	0.8622012	0.28654101
1.0939096305468698e-09	0.667736	0.383153	0.6213557	0.13899775	0.8248118	0.42991775
1.1050805521468077e-09	0.6854014	0.328699	0.63143265	0.06182073	0.7422024	0.5678903
1.1166975379448945e-09	0.70798814	0.27193952	0.63158923	0.03328603	0.62894267	0.691884
1.128739223722376e-09	0.73383194	0.21768403	0.62110126	0.04327676	0.4937369	0.7945092
1.1410761595150455e-09	0.76110774	0.17181224	0.60053855	0.078263804	0.34203148	0.8694491
1.1540599351585913e-09	0.78908926	0.13890535	0.5707328	0.12661903	0.17172487	0.9132993
1.167271645107191e-09	0.81509584	0.12527283	0.5354095	0.1768731	-0.007571105	0.9196595
1.1806842185661722e-09	0.836788	0.13354623	0.49872655	0.2245763	-0.18731333	0.88634753
1.19416991054549e-09	0.8511959	0.16311333	0.46550766	0.27271762	-0.35419852	0.814221
1.2077924216660158e-09	0.8556756	0.2102283	0.43977532	0.33195686	-0.49504262	0.7067023
1.2213034687376805e-09	0.8487132	0.26709333	0.42498925	0.41420427	-0.5921437	0.5733125
1.234596982663666e-09	0.831352	0.32477003	0.42225865	0.52680665	-0.62926817	0.42612067
1.2476111313273052e-09	0.8068494	0.37539586	0.4306854	0.6653419	-0.5903917	0.278606
1.2601201685926414e-09	0.7800198	0.41316777	0.44761515	0.807178	-0.4656817	0.14713499
1.2715208637860717e-09	0.7561481	0.43549576	0.468581	0.91439354	-0.27119717	0.049857087
1.2822351508091032e-09	0.73668104	0.44501185	0.4911127	0.96384597	-0.028899034	-0.008936963
1.292240169590899e-09	0.7225774	0.44398046	0.5129287	0.9427921	0.22262417	-0.025355108
1.3020212758846492e-09	0.71336985	0.43440187	0.5335242	0.85473627	0.4560184	-0.0005189334
1.312268638132856e-09	0.7088604	0.41645724	0.55294806	0.70817834	0.65035105	0.06695918
1.322449019592457e-09	0.7094095	0.39217606	0.5688783	0.5408859	0.7710804	0.16676284
1.3326489823020574e-09	0.7144435	0.36324832	0.58055353	0.38556248	0.81949145	0.28608862
1.3429160339071722e-09	0.7232477	0.33152884	0.5873704	0.26371044	0.8090309	0.4124238
1.3532995934934204e-09	0.73503125	0.29897547	0.5889688	0.18344349	0.75587547	0.53585345
1.3639829665626541e-09	0.7491733	0.26728046	0.5851647	0.14313869	0.67158675	0.6505678
1.3750986311283038e-09	0.76501775	0.23861304	0.57587546	0.13762397	0.5625126	0.75135446
1.3866255721633477e-09	0.7815968	0.21582015	0.5615156	0.15911354	0.43286726	0.83218783
1.3984969626966834e-09	0.7977207	0.201649	0.5431978	0.19779648	0.28611103	0.8876159
1.4107981863189275e-09	0.8122105	0.1981401	0.5223951	0.24465601	0.12445337	0.913345
1.4234296828198632e-09	0.8234576	0.20648605	0.50136936	0.29256034	-0.04500928	0.9050841
1.4364075997988213e-09	0.82993585	0.22635163	0.48247468	0.33968273	-0.21301547	0.86033684
1.4496615680367508e-09	0.8303356	0.25557446	0.4681296	0.39034683	-0.36565045	0.7793943
1.4631717867391754e-09	0.82411647	0.29042634	0.46019727	0.4547073	-0.48690745	0.66604257
1.4769428186385118e-09	0.8118175	0.3261943	0.4597259	0.54449767	-0.55813485	0.5277585
1.4909012603354853e-09	0.7952821	0.3577659	0.4667004	0.664581	-0.5569819	0.37699446
1.504955324952216e-09	0.777337	0.3808602	0.47989255	0.80283254	-0.46093616	0.23100121
1.517417533992035e-09	0.7626933	0.39213505	0.49504185	0.91194814	-0.28651962	0.12300824
1.5285570030845714e-09	0.7520533	0.39442846	0.50983334	0.96737343	-0.06726437	0.057619665
1.538863420710091e-09	0.74500227	0.39024866	0.5234141	0.9606472	0.16594207	0.033322424
1.5489136319936292e-09	0.74103475	0.3809322	0.5356305	0.89299965	0.38933912	0.04832173
1.5593158870437548e-09	0.74001086	0.36674297	0.5463853	0.77093536	0.58212525	0.10325937
1.570440344622346e-09	0.74219227	0.34777418	0.5550053	0.6127345	0.7192595	0.19787668
1.5813223502898896e-09	0.7471879	0.32699028	0.5600285	0.4651923	0.7795222	0.3127497
1.5921809174124925e-09	0.754421	0.30572402	0.561433	0.34932464	0.77805454	0.43534255
1.6033123134702606e-09	0.76347554	0.28509295	0.5591787	0.2729227	0.72957736	0.55738395
1.614813497865621e-09	0.7737874	0.2667279	0.55328614	0.23728159	0.6449922	0.6705376
1.6270538825058008e-09	0.78492117	0.25213253	0.54378784	0.23797573	0.52830553	0.7696799
1.639770181744939e-09	0.7956657	0.24371374	0.5315516	0.26693213	0.38613108	0.84449667
1.6532266532388913e-09	0.805042	0.24302047	0.51754653	0.31361106	0.21944265	0.8886943
1.667420898926482e-09	0.81162333	0.25116503	0.5034958	0.36751083	0.034698147	0.8938207
1.6821249720529876e-09	0.81399244	0.26758108	0.49167836	0.42179856	-0.15240988	0.8537712
1.6973926473643382e-09	0.81135035	0.29014227	0.48401588	0.48003978	-0.32270238	0.76673144
1.7130846609343794e-09	0.8038161	0.31501675	0.48198497	0.5546857	-0.44882128	0.63808095
1.7291128881745982e-09	0.79271924	0.3377111	0.4859683	0.6596755	-0.50010055	0.48134592
1.744343641467905e-09	0.7811251	0.35335425	0.49442625	0.78456175	-0.45133287	0.32848126
1.7578711446135316e-09	0.77168894	0.3607805	0.50444293	0.8944743	-0.31400797	0.20866436
1.7697028159898505e-09	0.76508796	0.3618903	0.514028	0.9607314	-0.123919226	0.13152403
1.7804505004925568e-09	0.76090205	0.35870448	0.5225838	0.97316134	0.087778345	0.09456724
1.790794566248877e-09	0.75869817	0.35228038	0.5300597	0.93082315	0.29928473	0.09490784
1.8012984114305805e-09	0.75832814	0.3429909	0.5363747	0.83767754	0.49062747	0.13231325
1.8123976661449287e-09	0.75988185	0.33099756	0.5412067	0.70591664	0.6399333	0.20707169
1.8237852460338337e-09	0.7633072	0.31745225	0.5438816	0.5667414	0.7244804	0.30995715
1.8351874086123131e-09	0.76821864	0.30383062	0.54411715	0.45041427	0.7443644	0.42557544
1.8469308886983963e-09	0.77432966	0.290982	0.54189825	0.36945164	0.71146345	0.54450226
1.8593071597869119e-09	0.7813046	0.27997124	0.5372071	0.32871708	0.63448983	0.6583716
1.8725589284667926e-09	0.7886239	0.2721889	0.5301782	0.3272333	0.51822585	0.7581571
1.886732286388641e-09	0.7954104	0.2692476	0.52140206	0.35797444	0.36660498	0.8324555
1.9020175426269133e-09	0.8005996	0.27242863	0.51188904	0.40933493	0.18293458	0.8695614
1.9182829830753497e-09	0.8029155	0.2820747	0.50333697	0.46858153	-0.019272208	0.8568121
1.9353812860348503e-09	0.8014809	0.29685196	0.49759412	0.5310854	-0.21449839	0.7867503
1.9531198141842767e-09	0.79631966	0.31375325	0.49607357	0.60664976	-0.36538735	0.66233414
1.970897063175331e-09	0.78878707	0.32862422	0.4990579	0.7089037	-0.42819428	0.50439185
1.9868076151016956e-09	0.7815914	0.33775806	0.50478005	0.8216908	-0.38183606	0.35808957
2.0007777553922133e-09	0.77601916	0.34150594	0.5112451	0.91576684	-0.24924348	0.24656738
2.0128254786418254e-09	0.772338	0.3413484	0.5171727	0.96660566	-0.07173287	0.17810878
2.0239475859123746e-09	0.7701206	0.3385775	0.52240276	0.9686846	0.12480262	0.14750703
2.0348522301212366e-09	0.7691471	0.33374292	0.52689314	0.9210899	0.32043713	0.15294768
2.0461202785462615e-09	0.76939255	0.32703122	0.5305251	0.8278112	0.49526885	0.19517975
2.0577836762850766e-09	0.7708968	0.31890616	0.5329338	0.70666045	0.6231831	0.2714662
2.0694793597158066e-09	0.77349806	0.31033128	0.5338152	0.58796805	0.6887525	0.3696943
2.0814199887505534e-09	0.7770028	0.3019701	0.5331195	0.49190325	0.69643384	0.47899172
2.09396763812371e-09	0.7812242	0.2944677	0.5308076	0.4295035	0.6532317	0.59057844
2.1075191652413495e-09	0.78589314	0.28867316	0.526865	0.4057596	0.5631567	0.6955371
2.121884734391053e-09	0.7903615	0.2857844	0.52166694	0.41899392	0.4327248	0.77954584
2.1373092964327118e-09	0.79396117	0.28663793	0.5157932	0.45950606	0.26619154	0.8310333
2.153796100627246e-09	0.79587513	0.29162946	0.51023084	0.51467526	0.07464489	0.83678615
2.171420016854164e-09	0.7954438	0.30027786	0.50615215	0.5766952	-0.1203065	0.7861697
2.189757934140966e-09	0.79255396	0.31073195	0.50467765	0.6487651	-0.27782643	0.6792302
2.2077783339310135e-09	0.7881246	0.3201029	0.50608003	0.7388723	-0.35127074	0.5384089
2.2245254175139197e-09	0.7836034	0.3263119	0.509471	0.83922565	-0.31945384	0.39959627
2.2391615855703736e-09	0.7800683	0.328996	0.51347286	0.92097044	-0.20203707	0.29358712
2.2520462686275424e-09	0.7776749	0.3290653	0.5172825	0.9636071	-0.036915373	0.2278705
2.2640922466172293e-09	0.7762356	0.32728422	0.52069086	0.9601508	0.14866291	0.19998914
2.2760293897058323e-09	0.7756496	0.32400686	0.52360404	0.9094889	0.3328678	0.2091732
2.2881345014636773e-09	0.7759155	0.31952024	0.52582896	0.8198237	0.4898149	0.2546032
2.2999610225202183e-09	0.77695453	0.3144624	0.5271206	0.715821	0.5943264	0.32702816
2.311960677975662e-09	0.7786748	0.30916706	0.52745616	0.616791	0.6448427	0.4179423
2.324479090101393e-09	0.7809888	0.30403084	0.5267754	0.53834695	0.64296854	0.51888365
2.3378758958328636e-09	0.78376555	0.2995624	0.5250228	0.4911295	0.5911889	0.620943
2.3520486250486117e-09	0.78667	0.29651687	0.5223121	0.48014578	0.4946853	0.7107324
2.3671635278607026e-09	0.7893028	0.29551232	0.5189148	0.5010171	0.35893238	0.77653074
2.3833188735483643e-09	0.7911675	0.29699364	0.5153184	0.54411966	0.1922847	0.8058262
2.4004573691791625e-09	0.7917773	0.30095315	0.5122186	0.59901583	0.012338473	0.78742266
2.4184251012925396e-09	0.7908802	0.30670497	0.51034045	0.66190976	-0.15069443	0.716729
2.4368741657627026e-09	0.7886684	0.31290695	0.51016665	0.7377168	-0.25628147	0.6023039
2.4546394331927574e-09	0.78590065	0.3178647	0.5115851	0.8244943	-0.2686509	0.4733952
2.470217773111843e-09	0.78348505	0.32064578	0.51378894	0.90029716	-0.19290294	0.36678725
2.4844004543336898e-09	0.78163713	0.3216079	0.51622033	0.9480564	-0.056592066	0.29254514
2.4975837535790247e-09	0.7804072	0.32112664	0.5185356	0.9553069	0.109703004	0.25515434
2.5102756536834067e-09	0.77975976	0.31952214	0.5205626	0.91992915	0.27870125	0.2542656
2.5225294597496807e-09	0.7796676	0.31711224	0.5221385	0.8513526	0.42292497	0.28628907
2.534513481018181e-09	0.78007436	0.31419906	0.5231831	0.7664913	0.52646697	0.3438371
2.5467020698317405e-09	0.7809405	0.31098565	0.52366173	0.68076384	0.58463395	0.42021617
2.55954547120404e-09	0.7822423	0.3076935	0.52350897	0.6079212	0.59521085	0.50893563
2.573330477291451e-09	0.78391045	0.30467594	0.5226554	0.56013405	0.5571408	0.6010955
