# t (s)	mx ()	my ()	mz ()	m.region1x ()	m.region1y ()	m.region1z ()
0	0	1	0	0	1	0
1.023e-12	-0.024332764	0.9995737	0.015728045	-0.028630216	0.99944323	0.017133292
2.047e-12	-0.048070155	0.9983195	0.03154817	-0.056591418	0.9978053	0.034381684
4.095e-12	-0.093602955	0.9934895	0.063358665	-0.11028638	0.9914965	0.069075726
8.191e-12	-0.17646825	0.97565395	0.12727082	-0.20806865	0.96824163	0.13861404
1.5448745784492395e-11	-0.29523188	0.9236415	0.23941517	-0.3479828	0.90100443	0.25899652
2.2643001902813335e-11	-0.37817192	0.8558037	0.3463928	-0.44587168	0.81477803	0.37048596
2.996179841295702e-11	-0.43043035	0.7786347	0.4486448	-0.5094841	0.718741	0.47291887
3.749260843148535e-11	-0.45556077	0.6963408	0.54546404	-0.54505575	0.61863124	0.5655561
4.5286880554696974e-11	-0.45698994	0.61132914	0.6358302	-0.55842614	0.51757056	0.6478397
5.3352367579850506e-11	-0.43836623	0.5247228	0.7183269	-0.5550087	0.41699743	0.7191769
6.165128107853157e-11	-0.40384716	0.43670774	0.7912568	-0.5398409	0.31732625	0.77890307
7.016412000825152e-11	-0.35778266	0.346304	0.8532652	-0.51737016	0.21781076	0.82663727
7.891050038819178e-11	-0.30423108	0.25169528	0.90321904	-0.49120292	0.116922185	0.8620088
8.793698122202292e-11	-0.24684322	0.15084349	0.93980634	-0.46412784	0.012914425	0.884264
9.728951736395353e-11	-0.18895069	0.04222203	0.96125615	-0.4381885	-0.09559575	0.89206016
1.0699782276870541e-10	-0.1333801	-0.07455312	0.96539223	-0.41449732	-0.20923074	0.88355803
1.1672761619696653e-10	-0.08347904	-0.19402045	0.9507779	-0.3934582	-0.3235814	0.8579385
1.2562307724232555e-10	-0.04221627	-0.30306256	0.92105573	-0.37468725	-0.42754224	0.81961554
1.3415405395731988e-10	-0.004467437	-0.40496257	0.8782154	-0.354349	-0.5255581	0.7698242
1.4262712391997182e-10	0.034370888	-0.5009152	0.8223647	-0.32846257	-0.61996466	0.7083102
1.5116010732024498e-10	0.07877927	-0.5892648	0.7535836	-0.29261234	-0.7104487	0.6350264
1.5953385351502699e-10	0.13174076	-0.6644958	0.6749723	-0.24357963	-0.79263866	0.5530308
1.6769242432781746e-10	0.19608802	-0.7229488	0.589153	-0.1785124	-0.86354864	0.46460852
1.7573110783030973e-10	0.27460593	-0.7615483	0.49735105	-0.09418949	-0.9206043	0.3704007
1.8357915526265237e-10	0.36689368	-0.77564657	0.40281457	0.009923129	-0.9587758	0.2729072
1.9135644011507596e-10	0.47246885	-0.76061416	0.30686042	0.13513808	-0.97271067	0.17241742
1.9911263738534378e-10	0.5876786	-0.7107382	0.21206422	0.28018793	-0.9545077	0.070311666
2.067173038179473e-10	0.70294267	-0.62301135	0.12371904	0.43682507	-0.89624876	-0.029031754
2.141083335128221e-10	0.80720115	-0.49856102	0.04629092	0.59351194	-0.79263407	-0.12145923
2.2146289539129066e-10	0.8916495	-0.33795807	-0.018247472	0.73987585	-0.6373062	-0.20492247
2.288751831202873e-10	0.9453376	-0.14564647	-0.06648717	0.85909235	-0.42692333	-0.27464718
2.3624000971062735e-10	0.9579523	0.06385313	-0.09419182	0.9284326	-0.1717916	-0.32277447
2.435169149999726e-10	0.9261944	0.27349848	-0.09953486	0.9307392	0.10747418	-0.3427592
2.5076271982655407e-10	0.85302544	0.4686752	-0.08253003	0.85860616	0.38518617	-0.33006337
2.580125745891025e-10	0.74663126	0.6364148	-0.044414483	0.71716475	0.6316682	-0.2826948
2.6525808975529133e-10	0.6197285	0.7672164	0.012016567	0.5262908	0.8205644	-0.20314983
2.725968785944405e-10	0.48459733	0.85852957	0.08393809	0.31184438	0.93971604	-0.09680829
2.8012198164733644e-10	0.35290426	0.91096616	0.1684412	0.100494646	0.9883755	0.028785255
2.879196133076183e-10	0.23501168	0.9275301	0.2624856	-0.08567928	0.9754993	0.16508268
2.9603804345068624e-10	0.13968936	0.91289127	0.3624837	-0.23212133	0.91598904	0.30337766
3.0427222244144037e-10	0.07433328	0.8740575	0.46182027	-0.33129337	0.8288296	0.43290788
3.1275350819215635e-10	0.038837418	0.81671906	0.5584635	-0.38920385	0.72667515	0.5514006
3.216308598659346e-10	0.032099765	0.7437473	0.65063155	-0.4131011	0.61600035	0.6580907
3.310458784038871e-10	0.05239027	0.6556223	0.7359538	-0.40990037	0.49891427	0.7522694
3.408327242688778e-10	0.09529732	0.5540838	0.80903745	-0.38711742	0.37806976	0.8304442
3.5091613119996e-10	0.15395617	0.43958116	0.8658872	-0.35287645	0.25288677	0.8907396
3.609714877978198e-10	0.21887994	0.31629825	0.9024388	-0.31549463	0.12542464	0.9305542
3.709376448026453e-10	0.2830161	0.18726069	0.91776776	-0.2805656	-0.0045820014	0.9495595
3.809890482728314e-10	0.3431384	0.054060515	0.9116926	-0.2505451	-0.13915028	0.94733876
3.9125068728030314e-10	0.39813882	-0.07942454	0.88351893	-0.22583598	-0.27839133	0.92217815
4.01286546111362e-10	0.44698632	-0.20090191	0.8357527	-0.20513327	-0.41357428	0.87492573
4.1109940848671506e-10	0.49349403	-0.30431202	0.7718186	-0.18326288	-0.5414339	0.8075267
4.2101554351486123e-10	0.543819	-0.38673466	0.6928325	-0.1523617	-0.66244483	0.7194467
4.3063627254472805e-10	0.59985733	-0.43934092	0.6058796	-0.10585312	-0.7676316	0.6168654
4.39874366135322e-10	0.6623417	-0.4590679	0.51660365	-0.038447842	-0.8521355	0.50500876
4.489820405981974e-10	0.7314459	-0.44432166	0.42712262	0.055595063	-0.9128638	0.3847762
4.5792829319865306e-10	0.80260676	-0.3933889	0.34215015	0.17759632	-0.94179624	0.26021007
4.668851063102768e-10	0.8700061	-0.30497575	0.26462612	0.32787704	-0.92880386	0.13278635
4.756642671232323e-10	0.9232354	-0.1841221	0.20056263	0.49523735	-0.86238927	0.009739144
4.844743856530574e-10	0.954345	-0.03527711	0.15241574	0.6679058	-0.7298334	-0.10599511
4.932761979728329e-10	0.9555489	0.13010988	0.12389446	0.8207934	-0.5238977	-0.20591193
5.020245876747452e-10	0.9239701	0.29708362	0.116954364	0.9219799	-0.25035062	-0.2794961
5.108633382016931e-10	0.86143625	0.4536298	0.13183591	0.94100314	0.07335107	-0.3161205
5.198201296828659e-10	0.77493143	0.5869992	0.16761015	0.85591155	0.4064928	-0.3041725
5.287780482398828e-10	0.6771015	0.686787	0.22074538	0.67433894	0.69107217	-0.23874733
5.378285560687259e-10	0.5796371	0.7508202	0.28738755	0.43210092	0.8862311	-0.12456005
5.469993450170136e-10	0.49338803	0.78010046	0.36298457	0.18071382	0.9757956	0.024271002
5.563235005497845e-10	0.42624035	0.7783068	0.44297588	-0.035413288	0.97260785	0.18911476
5.659199091999223e-10	0.38237354	0.7496911	0.5237364	-0.19392763	0.9040553	0.35449696
5.758722044161321e-10	0.36363968	0.69769716	0.60143304	-0.29047456	0.7967533	0.5091331
5.860426799721576e-10	0.3691017	0.6264	0.67073065	-0.3321984	0.67194474	0.6439062
5.964249562884146e-10	0.3945806	0.5388544	0.72788423	-0.3338115	0.53978056	0.7562542
6.072385449256612e-10	0.435403	0.4355926	0.77033544	-0.3090076	0.3999832	0.8470284
6.186870094792282e-10	0.4868387	0.317394	0.794403	-0.2687611	0.24845263	0.9148688
6.308128079881634e-10	0.5435327	0.18886882	0.7955274	-0.22335468	0.08206015	0.9549932
6.430182767886457e-10	0.59865725	0.06483951	0.7719036	-0.18323657	-0.09145134	0.9613341
6.548071116766476e-10	0.6493538	-0.040337108	0.72770774	-0.15230462	-0.26166943	0.9337966
6.66644328522497e-10	0.69943786	-0.122051194	0.6659629	-0.12530169	-0.42959082	0.87249
6.783024737282258e-10	0.7500541	-0.1708715	0.5931453	-0.09346937	-0.58507705	0.7803844
6.892880042294861e-10	0.7993368	-0.18227378	0.5190293	-0.046932895	-0.7153555	0.66758627
7.000139864109588e-10	0.8467488	-0.15778182	0.44702524	0.025689455	-0.81914407	0.53710717
7.107781743849701e-10	0.8886859	-0.09761727	0.38072643	0.13499649	-0.8890851	0.3909974
7.212184284768077e-10	0.91742766	-0.008666773	0.32725894	0.2797281	-0.90969115	0.24053773
7.313879440764406e-10	0.92792326	0.099888146	0.28959516	0.45268637	-0.867551	0.09231836
7.415136030319753e-10	0.9171318	0.21941188	0.2691148	0.63995373	-0.74625087	-0.048526987
7.516545804598709e-10	0.88454616	0.3388289	0.26694962	0.8118222	-0.5321287	-0.17145361
7.618320789055772e-10	0.8335379	0.44695365	0.28280294	0.9244536	-0.22685467	-0.2613118
7.717438991193305e-10	0.7729269	0.5323639	0.31358808	0.93289757	0.12735225	-0.2997923
7.810733960517113e-10	0.7132693	0.59029007	0.35356194	0.8290405	0.45966136	-0.27963135
7.903955823240387e-10	0.6577343	0.62501293	0.4008971	0.63116735	0.7318748	-0.20194337
8.005868269382808e-10	0.60769737	0.637507	0.45711926	0.361309	0.9138995	-0.06234771
8.11153861463398e-10	0.57180476	0.6254323	0.5159601	0.09568896	0.96924245	0.11693935
8.217241776404303e-10	0.5536456	0.5919625	0.5712406	-0.10479578	0.9232281	0.30251744
8.32440668162362e-10	0.552221	0.54053473	0.6200674	-0.22853619	0.8185534	0.47595865
8.432333625119389e-10	0.5651063	0.4751851	0.659051	-0.284739	0.6873218	0.62533456
8.543806147938461e-10	0.5894239	0.39786345	0.6864082	-0.29245588	0.5420334	0.74984473
8.662109841955911e-10	0.62281704	0.3102216	0.69964653	-0.267542	0.383111	0.8491026
8.781819514157578e-10	0.6604508	0.2219546	0.6961045	-0.22640671	0.21738726	0.9158041
8.910572592968959e-10	0.7021167	0.13535464	0.6743151	-0.17912321	0.03270241	0.94950646
9.046515830932677e-10	0.74571204	0.06252543	0.63408923	-0.13477427	-0.16760628	0.94107527
9.187190684403729e-10	0.78952426	0.01657253	0.57914734	-0.09465502	-0.37359616	0.883685
9.322196177583886e-10	0.8288522	0.00703287	0.5202781	-0.050860513	-0.55926377	0.7831717
9.452481943302868e-10	0.8611027	0.0321544	0.46455324	0.013805735	-0.7144376	0.64810586
9.580597766830229e-10	0.8826791	0.087417394	0.41710353	0.11720318	-0.8281799	0.48577908
9.704307578556362e-10	0.88935745	0.16309658	0.38324544	0.26647118	-0.88073474	0.31027508
9.824053975844325e-10	0.8798012	0.24804427	0.36496416	0.4560345	-0.85192007	0.13371344
9.94001460812672e-10	0.85564244	0.3313371	0.36223912	0.6619058	-0.7219297	-0.03008378
1.0053446326140447e-09	0.82073325	0.40487972	0.3734957	0.84284335	-0.47922188	-0.16602486
1.0158988509309304e-09	0.78256094	0.4601716	0.3947987	0.9405116	-0.15714048	-0.25132528
1.0256163234954032e-09	0.74669355	0.4967121	0.4216576	0.92857325	0.186167	-0.27760926
1.0348988759569781e-09	0.71509945	0.517549	0.451761	0.8119791	0.5023573	-0.24568179
1.0444167334482359e-09	0.6880429	0.52464736	0.48499048	0.60689867	0.75769097	-0.1551824
1.054570304331199e-09	0.6671201	0.51731676	0.5206681	0.34888586	0.91445124	-0.008507325
1.0645736346472483e-09	0.65543777	0.49682212	0.55374485	0.11615369	0.9536835	0.16247088
1.0745070770798176e-09	0.6524774	0.46563554	0.58256775	-0.057120025	0.9095136	0.33480635
1.0845255083773937e-09	0.65727663	0.42570746	0.6059714	-0.16545096	0.8159132	0.49503613
1.0947408687463106e-09	0.66874504	0.3789577	0.6227573	-0.21716036	0.6958138	0.6359885
1.1051447208106927e-09	0.6855046	0.3280878	0.6317295	-0.22565754	0.5623266	0.7533887
1.1157433968001115e-09	0.70609176	0.27616873	0.6321744	-0.20539363	0.4203884	0.8456744
1.1266166299884878e-09	0.7293033	0.22634104	0.6238277	-0.16870925	0.2695626	0.912161
1.1378395814481046e-09	0.75411856	0.18226181	0.606845	-0.12529121	0.1081924	0.95086783
1.14933564069905e-09	0.77926946	0.14841637	0.5823333	-0.0825489	-0.0620617	0.9583787
1.1609862297224287e-09	0.8033403	0.1287388	0.552495	-0.043843072	-0.23620464	0.9319964
1.1729149424310285e-09	0.82513624	0.12571484	0.5196496	-0.0060936688	-0.40983048	0.86941063
1.1848857691861413e-09	0.8424065	0.14035751	0.48754433	0.038741883	-0.57062984	0.7719571
1.1970520259708831e-09	0.85329264	0.17167659	0.45899504	0.10494722	-0.7091314	0.64125454
1.2092808597551848e-09	0.8557437	0.21610193	0.43725276	0.20682453	-0.80842537	0.48423547
1.2214157440833107e-09	0.8489172	0.26768818	0.42457044	0.3520194	-0.84769195	0.31201047
1.2336965557118173e-09	0.83314776	0.3212513	0.42173213	0.5398519	-0.80115217	0.13326862
1.245314264210268e-09	0.8118708	0.36762992	0.42815173	0.73218447	-0.65183663	-0.024859985
1.2564830109609113e-09	0.78816426	0.40416798	0.44168124	0.8879168	-0.39907023	-0.14853793
1.2668712457350404e-09	0.765737	0.42867836	0.45936865	0.9586201	-0.0807785	-0.21972924
1.2764507595216763e-09	0.74664855	0.4421356	0.4786597	0.9266684	0.24563262	-0.23300226
1.2858295758042925e-09	0.7308406	0.44656882	0.4989917	0.798698	0.5430139	-0.18980141
1.2957408157830676e-09	0.7182934	0.4422051	0.52061516	0.58788735	0.77942795	-0.087181434
1.3059393655247467e-09	0.7104821	0.42893788	0.5415451	0.34642622	0.90969825	0.062684454
1.3159756606246733e-09	0.707964	0.40855992	0.559523	0.13791981	0.9338534	0.23044427
1.325919759077157e-09	0.7101966	0.38284606	0.5737296	-0.011978952	0.8850315	0.3957538
1.3359079290093696e-09	0.7165324	0.35330614	0.58363205	-0.10180042	0.7929471	0.5472926
1.3460526402449146e-09	0.72632515	0.32147884	0.5887524	-0.1407266	0.67649865	0.6793785
1.356376797141115e-09	0.73882514	0.2893119	0.5887208	-0.14128992	0.54588616	0.7886836
1.3669125160895974e-09	0.753252	0.25889453	0.58345634	-0.11633263	0.40474063	0.87367517
1.377691480840509e-09	0.76880807	0.23243423	0.5732019	-0.0771148	0.25340444	0.9328958
1.3889109361213348e-09	0.78488946	0.21190776	0.5583236	-0.03203634	0.08916702	0.9643972
1.4003794730242546e-09	0.8002186	0.19993095	0.54011005	0.011697539	-0.08354187	0.96401083
1.4120037264724128e-09	0.81357956	0.1979937	0.52027905	0.051595256	-0.258711	0.9292672
1.4238978839114572e-09	0.8239151	0.20661314	0.5004804	0.091624655	-0.43036863	0.858183
1.4360939766408509e-09	0.8299942	0.22541198	0.48265252	0.14176042	-0.5880276	0.75027186
1.4484341574166763e-09	0.83075356	0.252342	0.46890137	0.2159244	-0.7155065	0.61008084
1.460994841081623e-09	0.8257759	0.28454465	0.46062684	0.32927677	-0.79480195	0.44367278
1.473625348782372e-09	0.81551987	0.31787258	0.45875838	0.48719433	-0.7999028	0.26396158
1.4863203398636467e-09	0.80131143	0.34844387	0.4632726	0.67749506	-0.70139134	0.08681202
1.4981509921258839e-09	0.786294	0.3714235	0.47251004	0.8482557	-0.49544975	-0.056218147
1.5091126437050635e-09	0.7724274	0.38630092	0.48439586	0.9529539	-0.20777899	-0.14997046
1.5190720420835207e-09	0.761002	0.39374933	0.49700278	0.96351284	0.10673061	-0.18643013
1.5286418795178773e-09	0.7518552	0.39529186	0.50985646	0.8799317	0.41035175	-0.16757374
1.5384841926147896e-09	0.74487793	0.3913416	0.5229582	0.71076876	0.6705672	-0.091932915
1.5492432815067761e-09	0.74045587	0.38123628	0.5361621	0.4778968	0.8506628	0.04365685
1.5597351350519422e-09	0.739469	0.36656842	0.5470242	0.26135665	0.9142906	0.20635845
1.5699826630471546e-09	0.74150205	0.3488811	0.55503476	0.09829361	0.8920604	0.37154096
1.5802373928644963e-09	0.7461245	0.32920402	0.56003344	-0.0051365695	0.8160732	0.5266126
1.5906103247842083e-09	0.75291604	0.30871695	0.561799	-0.05472331	0.70824397	0.6636355
1.6012348477389884e-09	0.7614591	0.28861314	0.5601941	-0.06202175	0.5801026	0.7789903
1.6120348751432073e-09	0.771112	0.2705506	0.5552936	-0.03991533	0.4384162	0.8688961
1.6231589925469034e-09	0.78135437	0.25580552	0.5473402	-0.00040472747	0.28312975	0.9321953
1.6346101636267785e-09	0.79146147	0.2458466	0.5368817	0.046247046	0.115046784	0.9657015
1.6465156475020813e-09	0.8007117	0.24185964	0.5246391	0.0930195	-0.06530785	0.96552247
1.6586879306702883e-09	0.8080721	0.24466842	0.5119352	0.13624361	-0.24925105	0.9276629
1.6711525978788971e-09	0.81273437	0.2542053	0.50005275	0.17982991	-0.42727464	0.8499865
1.6839916181603636e-09	0.81402624	0.26971018	0.49025944	0.23540007	-0.5864859	0.7320995
1.6972452871265878e-09	0.8115219	0.2896026	0.48377562	0.32037222	-0.7080222	0.5773135
1.7107288172341716e-09	0.80538964	0.31118032	0.4815504	0.44942304	-0.7644736	0.39714366
1.724387408497766e-09	0.7964627	0.33156937	0.4838191	0.62345874	-0.7231818	0.20818835
1.7372463781400713e-09	0.78678703	0.34718534	0.4896288	0.8019036	-0.56651205	0.044740144
1.7488948935436997e-09	0.77802736	0.35703647	0.4972561	0.93167025	-0.31685084	-0.07033162
1.7593703066098086e-09	0.7708925	0.36184317	0.5053518	0.9790264	-0.02180768	-0.12921971
1.7692234011761014e-09	0.7653036	0.36270913	0.51343834	0.93688184	0.278453	-0.13370769
1.7790951355457842e-09	0.7611244	0.3601223	0.5214443	0.8096075	0.55155915	-0.08389742
1.789605362850682e-09	0.75847065	0.3539188	0.5292842	0.6120023	0.76356673	0.022791317
1.8004220330735672e-09	0.7577772	0.34445468	0.5360512	0.39611343	0.8743183	0.17200516
1.8110962591721895e-09	0.75905746	0.33290073	0.5409798	0.21768972	0.8877028	0.33515695
1.8216647516959223e-09	0.7620373	0.32024944	0.543852	0.097082324	0.83424443	0.49277762
1.832305692019224e-09	0.76643455	0.30729184	0.5445968	0.032676604	0.73928046	0.6349714
1.843087246066376e-09	0.7719128	0.29493386	0.5431943	0.0147638405	0.6186381	0.75557494
1.8541904843062947e-09	0.7781562	0.28397924	0.5396962	0.030731797	0.47848198	0.8522121
1.865557835170727e-09	0.7846614	0.2754763	0.5343509	0.06787333	0.32285044	0.9209764
1.8774193436067902e-09	0.79101324	0.27019662	0.52745223	0.11552083	0.15026154	0.9592561
1.8896585397185493e-09	0.79653823	0.26895696	0.51966405	0.1643915	-0.03450257	0.9617972
1.9023143528468082e-09	0.8006356	0.27210736	0.5117526	0.21056792	-0.22498225	0.9241389
1.9153079044898787e-09	0.8027423	0.27945635	0.50465536	0.2571796	-0.40807185	0.84370434
1.9287466123672896e-09	0.8025068	0.29032457	0.4992004	0.31669673	-0.56821924	0.7202112
1.942605962374527e-09	0.7998269	0.30341175	0.49616444	0.40726477	-0.682037	0.5590257
1.9567228523056898e-09	0.7950509	0.316832	0.49601835	0.5426132	-0.7184933	0.37422046
1.9706450504097543e-09	0.7890911	0.32840902	0.4986323	0.71249473	-0.6458913	0.19133355
1.9835639277406724e-09	0.7832365	0.33646852	0.50307286	0.87044007	-0.46002388	0.04323778
1.994912127682653e-09	0.778401	0.34082136	0.5080933	0.96571255	-0.2031537	-0.04967267
2.005283742303788e-09	0.77458954	0.34235093	0.513176	0.98061126	0.083685905	-0.088701196
2.0152987633580875e-09	0.7716908	0.34159404	0.51816416	0.9123074	0.36632794	-0.07540558
2.0255440257371677e-09	0.7696852	0.33868358	0.52299607	0.7678087	0.6126579	-0.008789482
2.03642035156826e-09	0.7687314	0.33354345	0.5274636	0.57080406	0.78707224	0.11035841
2.0473015545583655e-09	0.7690174	0.32677507	0.5309318	0.37910193	0.8614563	0.2596718
2.0581935646236506e-09	0.77047193	0.31898502	0.53316593	0.22947966	0.8521274	0.41752002
2.0690885348190986e-09	0.77292603	0.31084728	0.5340385	0.13579819	0.7849323	0.5667495
2.080110764255476e-09	0.776178	0.30294216	0.5335269	0.09409092	0.6804454	0.6982304
2.091270937698427e-09	0.779956	0.29591405	0.5316898	0.093508594	0.55163765	0.80587167
2.102869119641984e-09	0.7840481	0.29022798	0.52860594	0.12151514	0.4012558	0.88793564
2.1148112578637323e-09	0.7880583	0.2865482	0.5245313	0.16564603	0.23343205	0.9392149
2.1271475103339294e-09	0.79160243	0.285322	0.5198215	0.21526721	0.050890937	0.95549256
2.1399857200173697e-09	0.79429495	0.28681773	0.5149188	0.2640956	-0.14137037	0.9317805
2.1533310716307238e-09	0.7957527	0.29103234	0.5103935	0.31235278	-0.33144754	0.86354995
2.1670885813148686e-09	0.79571265	0.29752377	0.50686556	0.36917597	-0.5000441	0.7504228
2.181359222458447e-09	0.7941177	0.30554137	0.5048247	0.45230407	-0.6241211	0.59619725
2.1958915497623473e-09	0.7912073	0.3138459	0.50461686	0.5762678	-0.670955	0.41579846
2.2104412872900486e-09	0.78751427	0.32114062	0.5062091	0.7361856	-0.60724914	0.23288076
2.223687694644147e-09	0.7839737	0.32610717	0.5089451	0.8830529	-0.43190226	0.087406285
2.235224473247433e-09	0.7810892	0.32875302	0.5120222	0.9709721	-0.18920177	-0.003098601
2.245784158306863e-09	0.77881634	0.32966346	0.5151404	0.98480046	0.08281456	-0.0415837
2.2560191607029263e-09	0.7770819	0.3291518	0.51820564	0.92140454	0.3526057	-0.029608877
2.2664513369291374e-09	0.77588916	0.32729724	0.52115136	0.78769803	0.58823484	0.03345516
2.2775519428310556e-09	0.775335	0.32404354	0.5238582	0.604762	0.75762635	0.14711764
2.2885947626927905e-09	0.77554435	0.31981075	0.5259138	0.4273375	0.8320848	0.28918603
2.2996139940956788e-09	0.7764727	0.31499326	0.52718836	0.28888816	0.82651234	0.43933794
2.3107588065616036e-09	0.7780382	0.30995685	0.52761674	0.20154434	0.7630385	0.58313465
2.322106007234393e-09	0.7801153	0.30510768	0.5271693	0.16388462	0.659834	0.7102478
2.3336091359961775e-09	0.782511	0.30089554	0.5258908	0.16627309	0.5298105	0.8131753
2.3455646702163055e-09	0.785067	0.2976302	0.52384984	0.19636478	0.37618962	0.88929117
2.3579632439470717e-09	0.7875253	0.29570666	0.5212146	0.24194606	0.20283577	0.9330499
2.3706700175660485e-09	0.7895874	0.29539895	0.51827645	0.2919199	0.016829403	0.9392246
