# t (s)	mx ()	my ()	mz ()	m.region1x ()	m.region1y ()	m.region1z ()
0	0	1	0	0	1	0
1.023e-12	-0.024334129	0.9995736	0.015728187	-0.030122573	0.99939656	0.017293429
2.047e-12	-0.048072882	0.99831927	0.03154845	-0.05956276	0.9976205	0.03472048
4.095e-12	-0.09360835	0.9934888	0.06335924	-0.116147265	0.99077535	0.06981243
8.191e-12	-0.17647865	0.97565144	0.12727186	-0.21930395	0.9655275	0.1402111
1.5449022984391487e-11	-0.2952537	0.9236315	0.23942064	-0.36699915	0.8925957	0.2618143
2.264353608850394e-11	-0.37820092	0.8557845	0.34640077	-0.47041935	0.7994182	0.37348753
2.996424498775937e-11	-0.43047225	0.7785879	0.4486755	-0.538138	0.69619465	0.4747308
3.749443919789896e-11	-0.4555984	0.6962942	0.5454805	-0.57723844	0.5893243	0.5646406
4.528947599315384e-11	-0.45702755	0.6112688	0.63584745	-0.59436715	0.48214823	0.64277333
5.3353228017531554e-11	-0.4384111	0.52467656	0.7183178	-0.59546643	0.3762656	0.70867616
6.165114734224258e-11	-0.40390396	0.43666828	0.79123145	-0.58580035	0.27211136	0.7619568
7.016322492134439e-11	-0.35785353	0.34627023	0.8532277	-0.56976444	0.16900778	0.8024479
7.890842500125126e-11	-0.3043201	0.25167406	0.9031694	-0.55071247	0.06552081	0.8299337
8.793346553099085e-11	-0.24695195	0.1508407	0.93974787	-0.5310047	-0.03998611	0.8437795
9.728837358830443e-11	-0.18905403	0.04219605	0.96120006	-0.51205546	-0.14883974	0.8427721
1.0699626459353804e-10	-0.13349365	-0.074568376	0.96533215	-0.4941683	-0.26154658	0.82527125
1.1672855215549696e-10	-0.08358559	-0.19405968	0.95070976	-0.47669762	-0.37392762	0.7910446
1.2562459645688403e-10	-0.042323433	-0.30310234	0.92098045	-0.4587182	-0.47536334	0.7454885
1.341553949314118e-10	-0.004575912	-0.40499374	0.87813735	-0.43667066	-0.5705222	0.6895617
1.4263059551721866e-10	0.03427463	-0.5009636	0.8222693	-0.40665734	-0.6618426	0.62289846
1.5116259520661726e-10	0.07868336	-0.5892961	0.7534934	-0.3644012	-0.7489614	0.5455697
1.595370451320785e-10	0.13165683	-0.66452736	0.67487466	-0.30721074	-0.8275887	0.46075392
1.6769686502391272e-10	0.19602442	-0.7229816	0.58904165	-0.23286225	-0.8946089	0.37068236
1.757348103382745e-10	0.2745468	-0.76156926	0.49724847	-0.1386365	-0.94717586	0.27585766
1.835830711040672e-10	0.36684805	-0.7756598	0.40271083	-0.024602445	-0.9800683	0.17854561
1.91360337834054e-10	0.47243324	-0.760618	0.3067589	0.11018416	-0.9875342	0.0788125
1.9911488522698464e-10	0.58762634	-0.71074593	0.21198475	0.2639681	-0.9612017	-0.022168448
2.067193537030928e-10	0.702894	-0.62301844	0.12364259	0.42779619	-0.8927445	-0.12026121
2.1410954727780274e-10	0.8071474	-0.49858028	0.046222214	0.58918726	-0.7764485	-0.21133092
2.2146412333625126e-10	0.8916031	-0.33797365	-0.018319303	0.7365141	-0.60522383	-0.29307216
2.288769155281255e-10	0.9452987	-0.14563954	-0.06656548	0.85061646	-0.37562683	-0.36000183
2.362415398013888e-10	0.95791006	0.063869044	-0.09427161	0.9059995	-0.0999881	-0.40312526
2.435187369472411e-10	0.92613834	0.27353927	-0.09961473	0.8838192	0.19689865	-0.414585
2.507642482510348e-10	0.85294884	0.46872118	-0.08260683	0.7775134	0.48348835	-0.38882747
2.580143834856038e-10	0.7465189	0.6364708	-0.044481967	0.5970717	0.7245714	-0.3239919
2.6526012147213033e-10	0.6195782	0.7672653	0.01196223	0.3705673	0.8918386	-0.22447234
2.725972739787439e-10	0.48444757	0.8585388	0.083878644	0.13121901	0.97612405	-0.098562606
2.8012317985128524e-10	0.35271835	0.9109558	0.1683996	-0.09064956	0.98326284	0.043133948
2.87921301197829e-10	0.23480545	0.9274895	0.26245588	-0.2737791	0.9294136	0.18961762
2.9603959924432824e-10	0.13947803	0.91282105	0.3624539	-0.40817535	0.8348887	0.3310856
3.042737885898955e-10	0.07411686	0.8739631	0.4617877	-0.4925824	0.7215548	0.45725498
3.1275214500303784e-10	0.038621556	0.81662816	0.55839264	-0.5374859	0.600958	0.5671941
3.216293274458587e-10	0.031864222	0.7436482	0.6505534	-0.55276376	0.47772554	0.66140914
3.3104423721229866e-10	0.05213134	0.65551996	0.7358688	-0.5465521	0.35254592	0.74003446
3.408300305567608e-10	0.09500782	0.55399543	0.8089398	-0.5264225	0.22735801	0.80071414
3.50913410601728e-10	0.15364048	0.4395039	0.8657873	-0.49924543	0.10117693	0.8423906
3.6097035780569316e-10	0.21855253	0.31621808	0.90234375	-0.47103155	-0.024071647	0.86357445
3.70935988132918e-10	0.2826687	0.18720807	0.9176729	-0.4449379	-0.14885667	0.8644882
3.809851408098108e-10	0.34276807	0.054060392	0.9116069	-0.42125326	-0.27547735	0.84486634
3.9124216183134147e-10	0.39774305	-0.07934639	0.88346493	-0.39820814	-0.40450752	0.80335057
4.012800654303352e-10	0.44660515	-0.20084108	0.8357127	-0.3728561	-0.52862793	0.74195737
4.1109359791004633e-10	0.49312183	-0.30426165	0.7717959	-0.33968034	-0.64527565	0.6629973
4.2101023190967194e-10	0.54345524	-0.38670522	0.6928267	-0.29060024	-0.7548883	0.5658705
4.306318631186553e-10	0.59950435	-0.4393459	0.6058828	-0.22073807	-0.84863347	0.45726204
4.398696417817988e-10	0.661993	-0.45911387	0.51662236	-0.12692551	-0.9208669	0.34226444
4.4897527118153435e-10	0.7310913	-0.4444294	0.42716736	-0.0047501354	-0.9669203	0.22144438
4.579235008583575e-10	0.80228674	-0.39355248	0.34217355	0.14493614	-0.97737336	0.09852613
4.668801330240654e-10	0.86971843	-0.3052077	0.26463872	0.32029164	-0.94015616	-0.025094293
4.756601967874028e-10	0.9230033	-0.18439911	0.20054615	0.50639415	-0.8430317	-0.14236699
4.844700951141031e-10	0.95417774	-0.035595544	0.1523681	0.68750936	-0.67222786	-0.2498438
4.93273302869725e-10	0.9554528	0.12981111	0.12380386	0.83272564	-0.42233002	-0.33794287
5.020224888341034e-10	0.9239284	0.2968283	0.116825536	0.9045175	-0.10553757	-0.39421177
5.108599847310903e-10	0.8614353	0.45340908	0.13167161	0.8699412	0.24931857	-0.40540335
5.198154766393508e-10	0.7749397	0.5868308	0.16741595	0.7140873	0.58604556	-0.35886675
5.287711941671326e-10	0.6770968	0.6866616	0.22052523	0.464699	0.83749336	-0.25334907
5.378191533318701e-10	0.57960033	0.75073165	0.28714544	0.17848854	0.96927917	-0.10063614
5.469931571762498e-10	0.49325478	0.7800547	0.3627739	-0.08330477	0.9843319	0.077155136
5.563189712616133e-10	0.42603496	0.7782728	0.44278803	-0.2822611	0.9146388	0.2565584
5.658025918544145e-10	0.38247645	0.750133	0.52263427	-0.40937144	0.7985297	0.4203682
5.753397206056828e-10	0.36367792	0.7009148	0.5973594	-0.47485474	0.6660258	0.55882317
5.849993205901208e-10	0.36718524	0.6343866	0.6640555	-0.49714544	0.53108156	0.67166823
5.945646442029588e-10	0.38842523	0.5554391	0.71864676	-0.49233067	0.4014538	0.7585716
6.044158597877647e-10	0.42330173	0.46349496	0.76093864	-0.47219625	0.27173093	0.824926
6.147301681318383e-10	0.46806937	0.358937	0.7885019	-0.4441796	0.13770911	0.871241
6.253823226282852e-10	0.5177069	0.24635917	0.7980588	-0.41454303	-0.0010863895	0.8951364
6.365060802791573e-10	0.56909025	0.12978935	0.7874559	-0.38686243	-0.14759374	0.89409846
6.478254467557826e-10	0.61903983	0.019727679	0.7562266	-0.36277422	-0.29763195	0.86531055
6.595499025210867e-10	0.66885024	-0.076397665	0.70482063	-0.3386169	-0.4513942	0.8058722
6.712820155710395e-10	0.71880203	-0.14561127	0.63815933	-0.30723125	-0.5992953	0.71726394
6.826156366258288e-10	0.7687473	-0.17961532	0.56444734	-0.25918046	-0.7310916	0.6064651
6.934600956284118e-10	0.8175482	-0.17710614	0.4907693	-0.18579929	-0.84032226	0.48076525
7.041699303952934e-10	0.8634493	-0.13885857	0.4205157	-0.077540785	-0.9228141	0.34190628
7.148375522361511e-10	0.90116525	-0.06658915	0.35849464	0.07147003	-0.96663296	0.19372174
7.251455152582795e-10	0.9234065	0.030777296	0.31089532	0.2537184	-0.95516086	0.046180557
7.35270832767906e-10	0.9260899	0.1444882	0.2796336	0.45882943	-0.87170905	-0.0969433
7.454422199888452e-10	0.90678775	0.2658036	0.26602444	0.6661497	-0.69503236	-0.23036017
7.555614467546499e-10	0.8667389	0.38173142	0.27084693	0.8314751	-0.4153658	-0.33963814
7.652817729463456e-10	0.8132937	0.47875255	0.2917336	0.900116	-0.06169529	-0.4050265
7.74367505187652e-10	0.7561782	0.550584	0.32362026	0.8450283	0.30199414	-0.4137798
7.831946447393735e-10	0.7001395	0.5999616	0.3634951	0.6732824	0.6240533	-0.362663
7.922909438725309e-10	0.64745677	0.62913495	0.41079167	0.40850958	0.86135167	-0.24938151
8.022135536598635e-10	0.6009701	0.6371517	0.4659205	0.093917064	0.9756237	-0.07494629
8.119616254929886e-10	0.56961787	0.6235718	0.5200443	-0.16892166	0.9585318	0.1169998
8.213509806529585e-10	0.553725	0.5934924	0.56909686	-0.34666985	0.8653543	0.2948681
8.30945211497129e-10	0.55113775	0.54866856	0.6135349	-0.45380834	0.73422253	0.4541322
8.407656024144442e-10	0.56066	0.4911892	0.6509214	-0.5039199	0.5893088	0.5880614
8.509133565491651e-10	0.58042747	0.42280608	0.6791989	-0.51432145	0.4408796	0.69594127
8.612336129249562e-10	0.60755146	0.3475451	0.6959475	-0.50019085	0.2943471	0.776543
8.719017570307138e-10	0.6398431	0.26794204	0.69994676	-0.4730579	0.14613739	0.8316716
8.829131941772017e-10	0.67511666	0.18885276	0.6900915	-0.44089946	-0.0058297236	0.860158
8.945316744367834e-10	0.7127038	0.11472204	0.6655405	-0.40768462	-0.16660826	0.85947436
9.062568029772943e-10	0.7501563	0.05576405	0.62842715	-0.37559617	-0.3287468	0.82673085
9.184325155871985e-10	0.7880157	0.017265124	0.5804498	-0.33921254	-0.49387544	0.75892144
9.30677626863844e-10	0.8239557	0.0063197594	0.5272103	-0.2895407	-0.65093297	0.65758413
9.4312080958162e-10	0.8557983	0.025700795	0.4734577	-0.21142572	-0.7924226	0.524228
9.555674494639595e-10	0.8789395	0.0743207	0.42565203	-0.09035135	-0.90220565	0.3660612
9.678435254198747e-10	0.8887858	0.1455092	0.3892902	0.08159521	-0.9592818	0.19342327
9.799177640391163e-10	0.88271475	0.22942854	0.36756977	0.30077586	-0.9379803	0.016683262
9.909691643637557e-10	0.86296636	0.30937207	0.36152643	0.52779347	-0.82201225	-0.14093155
1.0011429296251639e-09	0.83452845	0.37837428	0.3677271	0.7263693	-0.61215794	-0.2705724
1.0109787501749282e-09	0.80070174	0.43561634	0.38353437	0.8629954	-0.31040022	-0.36648342
1.0204633305275418e-09	0.76562405	0.4786104	0.4064295	0.8947092	0.050336953	-0.4135194
1.0294613848184493e-09	0.7332258	0.50659966	0.43339878	0.8037816	0.4058363	-0.40107358
1.0383732430562588e-09	0.7045642	0.52148485	0.46336353	0.6026821	0.7059938	-0.32644075
1.04780011955861e-09	0.68010336	0.5236691	0.49658668	0.31879953	0.90946513	-0.1870833
1.0573119724435048e-09	0.6629392	0.5128548	0.52964604	0.031559106	0.9787085	-0.00679692
1.066934700563349e-09	0.65378696	0.49030957	0.5606569	-0.20149608	0.93755215	0.1859238
1.0762791397735703e-09	0.65250313	0.45918542	0.58681875	-0.35260352	0.8342133	0.36018983
1.0857648543673549e-09	0.6579642	0.42041576	0.60809946	-0.43772	0.7016685	0.5120629
1.0955008547423777e-09	0.6693504	0.375466	0.6234283	-0.4726014	0.55838674	0.6382798
1.1054571363171331e-09	0.68552876	0.32672694	0.6316476	-0.47323805	0.41358504	0.7376187
1.1154675311180267e-09	0.70492435	0.27770588	0.6321057	-0.45389286	0.27142134	0.80997354
1.1258050607915858e-09	0.72688097	0.23009485	0.624634	-0.42423257	0.12671943	0.85814846
1.1362483472197442e-09	0.7499107	0.18816538	0.60967034	-0.39155307	-0.019175922	0.88077205
1.1468452703302575e-09	0.7731977	0.15485168	0.588165	-0.3593825	-0.167757	0.8773654
1.1576310908788938e-09	0.795915	0.13296804	0.56152594	-0.32804	-0.31872568	0.8465843
1.1685891245966077e-09	0.81695396	0.124898046	0.53176606	-0.29440325	-0.4692212	0.7872767
1.1796085168032942e-09	0.8347797	0.13183512	0.5015654	-0.25193483	-0.61329216	0.7001924
1.19067457034685e-09	0.847859	0.15331304	0.47346947	-0.19091626	-0.7444548	0.5873946
1.2018176244390811e-09	0.8546854	0.18750852	0.449775	-0.09997908	-0.8540474	0.4519799
1.213089555610929e-09	0.8540072	0.23140633	0.4324492	0.031711638	-0.92896765	0.29805315
1.2243226303463991e-09	0.8454264	0.2799595	0.42313316	0.20680632	-0.94910026	0.1344414
1.235683529079438e-09	0.8294814	0.32896096	0.42230603	0.42141902	-0.8890088	-0.032668542
1.2463425444226469e-09	0.80951715	0.37062922	0.4291101	0.6343927	-0.7340651	-0.18014194
1.2562163342330062e-09	0.7886231	0.40264207	0.44118047	0.8049375	-0.49064973	-0.29551125
1.2657845422232536e-09	0.7680349	0.4258616	0.4571284	0.89971507	-0.16838112	-0.3716262
1.2750149226401317e-09	0.749441	0.440075	0.47534314	0.8840913	0.19017462	-0.39473787
1.2838958620282056e-09	0.7339356	0.44587624	0.49437737	0.75286126	0.5236384	-0.357905
1.2930527283173057e-09	0.72132456	0.44394675	0.5144001	0.5197653	0.79133743	-0.25722367
1.3025069285704938e-09	0.71252877	0.43414634	0.53429997	0.23516816	0.94315463	-0.100372076
1.3119081941272668e-09	0.7082864	0.41753834	0.5521898	-0.024868846	0.9697599	0.082855105
1.3214434107525838e-09	0.70843697	0.39502752	0.5674196	-0.22323045	0.9055232	0.26915857
1.330890034718415e-09	0.7125683	0.3686031	0.578858	-0.3467556	0.79245263	0.4357331
1.34029754218081e-09	0.7199911	0.33980894	0.5861338	-0.40955105	0.6602539	0.57556134
1.349866176986579e-09	0.7301893	0.30967495	0.5890633	-0.4299041	0.5213778	0.68964833
1.3595923619830353e-09	0.7425095	0.27992982	0.5874229	-0.42248508	0.38152942	0.7782433
1.369385707677451e-09	0.75613683	0.25262243	0.5813421	-0.3993054	0.24263497	0.8419113
1.3794258900555129e-09	0.77062887	0.22905648	0.57105374	-0.36838335	0.100885615	0.88235676
1.3896076317710226e-09	0.78513116	0.21121886	0.55726296	-0.33552292	-0.043476716	0.8985532
1.3999470986857986e-09	0.7989196	0.20049751	0.54087996	-0.30349955	-0.19087438	0.8895494
1.4104200178421452e-09	0.8111638	0.19789322	0.5231112	-0.27225795	-0.33961588	0.8541564
1.4211534209987632e-09	0.82112324	0.20388857	0.50508183	-0.23793568	-0.48840567	0.79065293
1.4320451999238842e-09	0.82778883	0.21824253	0.4884065	-0.19372772	-0.6308098	0.6991619
1.4429639634811691e-09	0.8303885	0.23954947	0.47462693	-0.13031162	-0.7581825	0.5825499
1.4540858071026455e-09	0.82852817	0.26623294	0.46467274	-0.035301443	-0.8624648	0.44220585
1.4653223851768273e-09	0.8221699	0.295654	0.45949182	0.10081158	-0.927639	0.28407985
1.4766446481968435e-09	0.811883	0.32496187	0.4594651	0.2813315	-0.9323093	0.115780145
1.4880635789186623e-09	0.7987385	0.35148016	0.46446475	0.49703464	-0.8487573	-0.052836213
1.498502758901575e-09	0.78556126	0.37116194	0.47285852	0.6974068	-0.67183965	-0.19381195
1.5083752271768507e-09	0.77320564	0.38464224	0.483417	0.8496143	-0.40609017	-0.30090937
1.5179790006463257e-09	0.76219213	0.39239857	0.4953468	0.9161878	-0.06871298	-0.36352387
1.5270957090695725e-09	0.7533046	0.39470237	0.5074444	0.86935717	0.28343192	-0.36913165
1.5360811647403385e-09	0.7464875	0.39225358	0.5194123	0.71125257	0.60137254	-0.31379196
1.5455774693216855e-09	0.7416967	0.38493964	0.53139323	0.45788422	0.8432051	-0.19248717
1.55492111575261e-09	0.73955595	0.37361556	0.5418521	0.18568625	0.9563261	-0.02818328
1.5643847073198496e-09	0.7399628	0.3588172	0.5505258	-0.053073756	0.95718515	0.15684411
1.573802594407176e-09	0.7427423	0.34175777	0.55680424	-0.2237373	0.8813847	0.33559772
1.5832781228290446e-09	0.74759614	0.3233325	0.5604718	-0.32676858	0.7649701	0.49496606
1.5926990493815779e-09	0.7540549	0.3048586	0.56137276	-0.3746807	0.6337321	0.62701136
1.6021960222445072e-09	0.761756	0.28716043	0.55956435	-0.38507283	0.49796167	0.73295575
1.611844708239925e-09	0.7703194	0.27116436	0.55515146	-0.37175986	0.36058706	0.8144448
1.621555625225516e-09	0.7791987	0.25800812	0.5484616	-0.34547243	0.2229965	0.8718769
1.6314953583577762e-09	0.7880559	0.2483705	0.5398019	-0.31328025	0.081692316	0.9065047
1.641550208221889e-09	0.7962777	0.24310125	0.52982575	-0.28038597	-0.06252842	0.91720366
1.6518485959065561e-09	0.803435	0.24262077	0.51909286	-0.24867858	-0.21115878	0.90274125
1.6622726779130639e-09	0.80892086	0.24708599	0.50849926	-0.21791361	-0.36057037	0.86173916
1.6729161565317125e-09	0.81231457	0.25626877	0.49876246	-0.18381624	-0.508431	0.79280955
1.6837258415972976e-09	0.8132311	0.26945674	0.49071527	-0.13899897	-0.64843726	0.6961451
1.6947067425844032e-09	0.811504	0.28556076	0.48502085	-0.072938375	-0.7727965	0.5732409
1.7058660354890495e-09	0.8072116	0.30318612	0.4821634	0.026202494	-0.87021524	0.42736048
1.7171221517479923e-09	0.80077016	0.32062453	0.48237798	0.16708685	-0.92369896	0.26516137
1.7285859471398771e-09	0.79276055	0.3364714	0.4856133	0.3532791	-0.91025656	0.09306807
1.7401680143562276e-09	0.78407687	0.34920654	0.49151713	0.5702646	-0.799719	-0.07602109
1.7506882469844435e-09	0.77644056	0.35714352	0.49861103	0.7604223	-0.59356064	-0.21141818
1.7606639935993552e-09	0.7699836	0.3611247	0.50629526	0.8896334	-0.3008019	-0.30740568
1.7702098779821284e-09	0.76488817	0.36163107	0.5140079	0.9207663	0.045936164	-0.35231015
1.7792526711061437e-09	0.7612573	0.35922766	0.5212024	0.8389876	0.38731253	-0.3384524
1.7882722025449003e-09	0.7589257	0.35425448	0.5278846	0.65441155	0.67990744	-0.26416317
1.7980438246459269e-09	0.7579322	0.34635672	0.53417164	0.38570106	0.8867907	-0.12386282
1.8076812505982897e-09	0.7585156	0.3365692	0.5390553	0.119236015	0.96190286	0.052497502
1.8173981766871298e-09	0.7605775	0.32538983	0.54238963	-0.097217694	0.93246806	0.24023104
1.8269037448163349e-09	0.7638378	0.31391352	0.54395974	-0.23920228	0.8406216	0.41212597
1.83638422239711e-09	0.76806116	0.30265722	0.5438267	-0.31766635	0.7191349	0.56052715
1.8459191048194774e-09	0.772994	0.29220802	0.54205686	-0.34862047	0.5861113	0.6828257
1.8555651296817421e-09	0.7783641	0.28314433	0.53877395	-0.34761223	0.44920728	0.7794821
1.8653928070675676e-09	0.78389144	0.2759985	0.53415966	-0.32712948	0.30971327	0.85185826
1.875353384343312e-09	0.7892102	0.2713063	0.52853477	-0.29675153	0.16786627	0.90007555
1.8855490683385322e-09	0.7940227	0.2693962	0.5222208	-0.26284155	0.021223651	0.9241858
1.8959116461075937e-09	0.7979478	0.27048188	0.5157057	-0.22962408	-0.12941001	0.9226994
1.906568943076176e-09	0.80070245	0.27457362	0.5094046	-0.19779822	-0.28451335	0.89362305
1.9173899356878656e-09	0.8019849	0.28135893	0.50389946	-0.16533223	-0.4388863	0.8355118
1.9284556733485244e-09	0.80165076	0.29034352	0.499614	-0.12549056	-0.58830285	0.74718016
1.9397213167286687e-09	0.7996844	0.30072585	0.49694884	-0.06803277	-0.7243127	0.62961614
1.951200389220026e-09	0.79624516	0.31157625	0.49614525	0.019999037	-0.83580667	0.4854866
1.9628283392029788e-09	0.7916969	0.3218257	0.4972698	0.150045	-0.90577877	0.32098085
1.974647302262082e-09	0.7865126	0.3305567	0.5001968	0.3280532	-0.9107066	0.14381242
1.986471379466468e-09	0.7813371	0.336891	0.5045479	0.54113793	-0.8207708	-0.031165157
1.997338383741391e-09	0.7770424	0.3402382	0.50938386	0.7381247	-0.6306133	-0.17543936
2.007449840601361e-09	0.7737299	0.34112716	0.5142258	0.87884915	-0.35331145	-0.2790748
2.017166215075556e-09	0.7713226	0.3400131	0.5188678	0.928265	-0.013223905	-0.33332565
2.0262911296841695e-09	0.7698215	0.33733708	0.5229643	0.8665225	0.32870892	-0.32922813
2.0352915231566106e-09	0.7690898	0.33332637	0.5265478	0.70169586	0.62919235	-0.26577836
2.04492881318816e-09	0.76914257	0.3277856	0.5296838	0.44968855	0.8529605	-0.13794516
2.054664190396002e-09	0.7700612	0.32124847	0.5319459	0.18195291	0.95177114	0.033461682
2.0643245715015765e-09	0.77177036	0.31427497	0.5331743	-0.04030267	0.9409275	0.2182012
2.0739188247829505e-09	0.7741336	0.3073397	0.5333471	-0.19354998	0.8601031	0.39340755
2.0834488728646716e-09	0.77697265	0.30088672	0.53251237	-0.2811073	0.74426275	0.5461016
2.0930203843172987e-09	0.78012437	0.29523942	0.5307566	-0.31847972	0.61363167	0.6729907
2.102701009789761e-09	0.78341	0.2907098	0.5281967	-0.3213924	0.4773526	0.774081
2.1125008313749153e-09	0.78662336	0.28758556	0.5250038	-0.30302945	0.3385177	0.8501465
2.122517558921629e-09	0.7895804	0.2860641	0.52135956	-0.2732252	0.19572473	0.90233487
2.1326977655294284e-09	0.7920522	0.28628463	0.5175352	-0.23931354	0.048887	0.92994714
2.1431206314655507e-09	0.79385984	0.28825834	0.51378155	-0.20557608	-0.10332424	0.9319111
2.153789307067128e-09	0.79483396	0.29187185	0.51039046	-0.17363453	-0.25962687	0.90614676
2.16471159853631e-09	0.79486144	0.29686332	0.5076428	-0.14152841	-0.41681716	0.85059553
2.1758684636354873e-09	0.7939115	0.30281422	0.5057864	-0.103142895	-0.5691015	0.76417553
2.187250006758857e-09	0.79205763	0.30919257	0.5049941	-0.048141442	-0.7083227	0.6474551
