# t (s)	mx ()	my ()	mz ()	m.region1x ()	m.region1y ()	m.region1z ()
0	0	1	0	0	1	0
1.023e-12	-0.0243344	0.9995735	0.015728213	-0.030421028	0.9993871	0.017325453
2.047e-12	-0.048073426	0.99831927	0.03154851	-0.06015692	0.99758255	0.034788195
4.095e-12	-0.09360941	0.99348867	0.06335935	-0.117318615	0.99062705	0.06995942
8.191e-12	-0.17648073	0.9756509	0.12727207	-0.22154506	0.9649694	0.14052764
1.544707636523921e-11	-0.29523024	0.92364657	0.23939122	-0.370736	0.8908968	0.26232764
2.2640921016161963e-11	-0.3781815	0.8558082	0.34636295	-0.47522086	0.796323	0.3739997
2.9960671954819213e-11	-0.43045968	0.7786225	0.448627	-0.54370654	0.6916772	0.47494823
3.7491379725556336e-11	-0.45560008	0.6963223	0.5454417	-0.58346266	0.5834553	0.5642728
4.5286245343315106e-11	-0.45703918	0.61129737	0.6358097	-0.60127294	0.47508135	0.6415184
5.334790694942488e-11	-0.43843803	0.5247258	0.7182634	-0.6031855	0.36818758	0.70626503
6.164681246765295e-11	-0.40393582	0.43670595	0.7911914	-0.5944978	0.26315153	0.7582062
7.0158737563736e-11	-0.3578923	0.34630954	0.8531917	-0.57958657	0.15935758	0.79718757
7.890441250438437e-11	-0.30435976	0.25170922	0.9031413	-0.56174356	0.055361684	0.8230355
8.793144076308301e-11	-0.24698097	0.15085511	0.9397315	-0.5432341	-0.050465982	0.8351382
9.728406525945562e-11	-0.18909772	0.042238966	0.96118253	-0.5253554	-0.15936868	0.8323122
1.069935545646885e-10	-0.13352756	-0.07454245	0.9653207	-0.5082317	-0.27194124	0.81296474
1.167230972965032e-10	-0.083632	-0.19399841	0.9507091	-0.491052	-0.38393515	0.77700996
1.2562002417308955e-10	-0.04236408	-0.30305156	0.92098504	-0.47282836	-0.48491335	0.73001546
1.34151322382137e-10	-0.0046138517	-0.40494978	0.878146	-0.45006448	-0.57952577	0.6728949
1.4262812917592113e-10	0.03424357	-0.5009395	0.8222723	-0.4188802	-0.6702239	0.6052522
1.5116049171314968e-10	0.07865317	-0.5892777	0.75349694	-0.37504494	-0.7566016	0.5271894
1.5953399513319738e-10	0.1316182	-0.664504	0.67489064	-0.31600556	-0.8343627	0.44191232
1.6769317424725796e-10	0.19597596	-0.7229605	0.58906835	-0.23966719	-0.90037835	0.35161623
1.7573163127993272e-10	0.2744976	-0.7615599	0.49727264	-0.14339848	-0.95175093	0.2567523
1.8357926905252598e-10	0.36678565	-0.77566135	0.4027447	-0.027429275	-0.98320603	0.1595677
1.9135564744997222e-10	0.47235292	-0.76063925	0.30680457	0.10910964	-0.9889218	0.06007186
1.991110071667698e-10	0.58755535	-0.71078336	0.2120192	0.26438993	-0.96042687	-0.04062832
2.06714334629537e-10	0.7028084	-0.623093	0.12368623	0.42920685	-0.8893546	-0.13838014
2.1410533808351302e-10	0.8070827	-0.49866536	0.04625036	0.590948	-0.7699073	-0.22909017
2.21461105411467e-10	0.89156556	-0.33804896	-0.01830953	0.7376255	-0.5949032	-0.31034595
2.288734132191765e-10	0.94527465	-0.14573658	-0.0665618	0.84951085	-0.36106053	-0.3764644
2.3623812438519783e-10	0.95790607	0.063772276	-0.094279155	0.9006222	-0.08126082	-0.4182152
2.4351540251436285e-10	0.92615134	0.27345067	-0.09963298	0.8719279	0.21859838	-0.42746198
2.507610260351795e-10	0.8529728	0.46864733	-0.08263411	0.7573742	0.5056388	-0.39849338
2.58011058382952e-10	0.7465502	0.6364093	-0.044517264	0.5684035	0.74360734	-0.3296068
2.652571029209663e-10	0.61960363	0.7672237	0.0119241085	0.33505514	0.9042669	-0.22575401
2.7259495778333464e-10	0.48445505	0.85851574	0.083844766	0.09197089	0.9796225	-0.09594787
2.801204350702497e-10	0.35272586	0.91093665	0.1683595	-0.13012384	0.97725284	0.04851365
2.879162293932493e-10	0.23483495	0.9274764	0.26238623	-0.3107012	0.91490847	0.19621754
2.9603324426916307e-10	0.13950068	0.91282445	0.36236805	-0.4411724	0.81375223	0.33736125
3.042670097455817e-10	0.07411692	0.8739803	0.46169856	-0.5216721	0.6958632	0.46192682
3.127439074310461e-10	0.038599107	0.8166649	0.5582913	-0.56344527	0.57231724	0.56930745
3.2161920550348705e-10	0.031811617	0.74370974	0.6504411	-0.57671267	0.44723734	0.66027766
3.3103414020765416e-10	0.052049104	0.655591	0.735769	-0.56966984	0.32093304	0.73515457
3.4082069403033485e-10	0.09490699	0.5540684	0.8088598	-0.5497364	0.19519307	0.7917824
3.5090462807152187e-10	0.15352932	0.43958083	0.86572564	-0.5234181	0.06897715	0.8292351
3.6096445003214086e-10	0.21845402	0.31626865	0.9023058	-0.49621373	-0.055831186	0.846248
3.709297822725739e-10	0.2825673	0.18726937	0.9176461	-0.47080147	-0.17965502	0.84314674
3.809785917917675e-10	0.34266698	0.054130875	0.9115937	-0.44702682	-0.3048503	0.81970304
3.912393784724309e-10	0.39766538	-0.07932307	0.8834517	-0.4226909	-0.43207067	0.774618
4.012769672899182e-10	0.44652867	-0.20081428	0.8357077	-0.39466918	-0.5540343	0.71021426
4.1108742641267407e-10	0.49303323	-0.30420935	0.77182007	-0.35745856	-0.6682237	0.6288937
4.210050887850669e-10	0.5433724	-0.3866756	0.69285214	-0.30293524	-0.77497315	0.52999365
4.306257771753661e-10	0.5994151	-0.43933007	0.60592365	-0.22676717	-0.86527693	0.42036244
4.398636006015948e-10	0.66190255	-0.45912242	0.5166667	-0.12632243	-0.93329084	0.3050255
4.489688425658828e-10	0.7309984	-0.4444672	0.4272161	0.0024161392	-0.97391254	0.1845079
4.5791853209397993e-10	0.8022105	-0.39360988	0.3422053	0.15795949	-0.9774107	0.062475756
4.66878230450009e-10	0.8696743	-0.30525285	0.26463908	0.33772808	-0.931272	-0.059633955
4.756572599589046e-10	0.922965	-0.1844688	0.20054787	0.5254957	-0.8234447	-0.17462316
4.844680120767002e-10	0.9541568	-0.03565575	0.15235683	0.7043077	-0.64031565	-0.2788153
4.932687531828097e-10	0.9554483	0.12970686	0.12378924	0.84161353	-0.3780669	-0.36212054
5.020176257600951e-10	0.92394245	0.29672942	0.116796955	0.8992522	-0.051691823	-0.41163495
5.108526661057823e-10	0.861479	0.4532886	0.13162363	0.8453361	0.30589256	-0.41369826
5.198066795223181e-10	0.77500206	0.58671993	0.16734669	0.66945535	0.635112	-0.3562079
5.287629691332882e-10	0.6771458	0.6865887	0.2204485	0.40613753	0.86945695	-0.23988059
5.378146183566498e-10	0.5795965	0.75070393	0.28709188	0.11616024	0.9796121	-0.07877843
5.469852715214342e-10	0.49326655	0.7800315	0.36269125	-0.13977994	0.9749077	0.10315544
5.562147157049802e-10	0.4265985	0.77842885	0.4418786	-0.3265381	0.8923082	0.2807865
5.65517006202498e-10	0.38335717	0.7512895	0.5202769	-0.44182965	0.77093136	0.43886375
5.749274913472037e-10	0.36394036	0.70338815	0.59427476	-0.4999055	0.63664716	0.5716124
5.843617332159112e-10	0.3662721	0.63919926	0.6599698	-0.51823175	0.50339764	0.6776836
5.936726321110079e-10	0.3857601	0.56325406	0.71407634	-0.512615	0.37676778	0.7585264
6.03238688495309e-10	0.41854143	0.4749369	0.75666505	-0.49369723	0.2509391	0.8196926
6.132731041101788e-10	0.46135277	0.37406623	0.7856722	-0.4678961	0.12128752	0.8620599
6.236035107091633e-10	0.50927377	0.2652536	0.7978014	-0.4407323	-0.011925191	0.8833776
6.343762220314745e-10	0.55931085	0.15169859	0.79106915	-0.41511878	-0.15177932	0.88162655
6.453126192159135e-10	0.60806215	0.04299392	0.7648259	-0.392434	-0.29440036	0.8544771
6.567308840125045e-10	0.6568534	-0.05542706	0.71874857	-0.3692603	-0.44195572	0.7987565
6.681161368689042e-10	0.70509064	-0.13006368	0.6573575	-0.3398245	-0.58422726	0.71619886
6.796395145312321e-10	0.75535846	-0.1741589	0.5843751	-0.29337007	-0.71836776	0.6074415
6.905783969832085e-10	0.8045294	-0.18131584	0.5103385	-0.22286768	-0.83028305	0.4840793
7.012972585631732e-10	0.8515649	-0.15264519	0.4388072	-0.119224094	-0.9168279	0.34818465
7.120819358209346e-10	0.89249676	-0.08836543	0.37346563	0.026115624	-0.9682156	0.20096834
7.224771883557181e-10	0.919279	0.003324727	0.32182032	0.20571686	-0.96697783	0.05387478
7.326287674044189e-10	0.9273951	0.1135831	0.2861451	0.4100668	-0.89720815	-0.08920955
7.427668212722516e-10	0.91399056	0.23379192	0.2677872	0.62102395	-0.7383532	-0.22390433
7.528966902304936e-10	0.87907535	0.35222214	0.2678001	0.7995184	-0.47569925	-0.3383227
7.626985547528976e-10	0.8285657	0.45472616	0.28469804	0.8895281	-0.1291946	-0.41283303
7.71797662031898e-10	0.7726599	0.53230333	0.31348792	0.8564045	0.23714279	-0.43215752
7.805740050942418e-10	0.71649206	0.5874516	0.35085234	0.70258635	0.57151353	-0.39213222
7.894901899758487e-10	0.66281724	0.6224505	0.3956913	0.44941893	0.82748276	-0.29016754
7.991334014544202e-10	0.61389834	0.6371684	0.44859046	0.13524705	0.9657678	-0.12554811
8.088857826247164e-10	0.57782876	0.62995213	0.50313246	-0.14704911	0.96739715	0.06795474
8.182055400850046e-10	0.5574459	0.60523546	0.5531221	-0.34294257	0.8818231	0.24979565
8.276440384761854e-10	0.5505059	0.5655101	0.5989924	-0.46458492	0.7529405	0.41303343
8.372432549121577e-10	0.5559156	0.51296246	0.63853395	-0.52572685	0.608367	0.55037457
8.472110412963834e-10	0.57216036	0.4486025	0.67015857	-0.5445146	0.45910728	0.6621567
8.571958228108736e-10	0.5962014	0.3774394	0.6908624	-0.5364048	0.314872	0.7453457
8.675502119567268e-10	0.6262204	0.30035302	0.69993645	-0.5135216	0.17001677	0.8042225
8.782045729668607e-10	0.65980744	0.22196344	0.69598085	-0.4840521	0.023475852	0.8378288
8.89300177485817e-10	0.6956902	0.14653943	0.67826325	-0.4526388	-0.12850411	0.8447677
9.006614110432171e-10	0.73225933	0.08155125	0.64749014	-0.42144766	-0.28390616	0.8224347
9.122903429130341e-10	0.7689775	0.033479255	0.6055923	-0.38796377	-0.44106808	0.7688867
9.242288711673551e-10	0.805296	0.008418681	0.5555682	-0.34462178	-0.5964058	0.68260384
9.362720812005624e-10	0.83895963	0.01120767	0.50267774	-0.2801854	-0.74035287	0.5659989
9.485054360169175e-10	0.86705375	0.04333532	0.45174325	-0.17952213	-0.86315066	0.42174238
9.6063658638199e-10	0.884717	0.10129431	0.40910542	-0.032472786	-0.94595945	0.2593805
9.72640095507972e-10	0.8882787	0.17767511	0.3788527	0.164385	-0.9669343	0.08758991
9.84107029414269e-10	0.87672013	0.2597667	0.36368015	0.3919808	-0.9021577	-0.078017436
9.945368241052739e-10	0.8539478	0.33429646	0.36242783	0.60909617	-0.74549836	-0.21999429
1.0044466300518868e-09	0.82368016	0.39876133	0.37199354	0.786212	-0.49482006	-0.33466485
1.0140506405856482e-09	0.789439	0.45089948	0.39016524	0.882394	-0.16225171	-0.41061634
1.0232072938929898e-09	0.75552523	0.48846012	0.4141399	0.86171114	0.20306516	-0.43301532
1.0319804752914632e-09	0.7246778	0.51207083	0.44155926	0.7215712	0.53991246	-0.39531204
1.040875875521398e-09	0.697393	0.52337444	0.4720536	0.48106304	0.80412304	-0.29507798
1.0502461782031634e-09	0.6748965	0.5220709	0.5051557	0.18286571	0.95376015	-0.13541822
1.0597227198293632e-09	0.6598206	0.5082258	0.53766274	-0.09287265	0.9727332	0.054804828
1.0690689235833148e-09	0.652796	0.48393273	0.56697726	-0.29576594	0.899084	0.24214536
1.078305167315263e-09	0.6530622	0.4514463	0.5918027	-0.42161015	0.7790287	0.40815789
1.0876594733452618e-09	0.65968144	0.41201502	0.61158407	-0.4869671	0.6401817	0.5486612
1.0972993670967584e-09	0.6718834	0.36680755	0.6254489	-0.5091064	0.49543172	0.6633422
1.1069604010236244e-09	0.6881713	0.31931755	0.6321877	-0.5032255	0.3543672	0.75000864
1.1167220472453894e-09	0.707397	0.27172747	0.63159907	-0.4819961	0.2159842	0.811809
1.126799787277963e-09	0.7289354	0.22581056	0.62350184	-0.4531088	0.075584866	0.85072786
1.137056939053148e-09	0.751579	0.18528393	0.60823095	-0.42210102	-0.066581674	0.865618
1.1477282656561095e-09	0.77498233	0.1525935	0.5861417	-0.39079303	-0.21444379	0.85504967
1.158462103552723e-09	0.7974717	0.13185081	0.55934644	-0.35971445	-0.3622387	0.81767756
1.1694214323423454e-09	0.81831133	0.12489393	0.52948076	-0.32438597	-0.50953835	0.75223273
1.1804435055277678e-09	0.83583593	0.13294964	0.49935848	-0.2778569	-0.64965236	0.6599073
1.1916263445514393e-09	0.848599	0.1557459	0.47125795	-0.20940821	-0.77711946	0.5417273
1.202844986946176e-09	0.85485125	0.1911272	0.4479153	-0.10848679	-0.88072455	0.40249023
1.2141531080526233e-09	0.85344446	0.23579504	0.43122795	0.03469181	-0.94661486	0.24673165
1.2254133341681283e-09	0.8441245	0.28465065	0.42268285	0.22109082	-0.9540133	0.083102494
1.2367084735342458e-09	0.827695	0.33310178	0.42264378	0.44241562	-0.877211	-0.080869295
1.2469791584687968e-09	0.8081942	0.37280053	0.4297092	0.64934283	-0.7106863	-0.21954557
1.256656297350129e-09	0.78766346	0.40378863	0.44179383	0.8119656	-0.45692194	-0.32832548
1.266210770657836e-09	0.76714146	0.4266175	0.45786738	0.8950033	-0.12230197	-0.3984714
1.2752937220522027e-09	0.7489178	0.44031507	0.4758645	0.86268204	0.23721704	-0.41380447
1.2840726603759463e-09	0.73365366	0.4458754	0.49469912	0.71497154	0.5652816	-0.36908054
1.2931703047838664e-09	0.7211698	0.44385123	0.51458913	0.46769565	0.82110673	-0.26010787
1.3024028054287279e-09	0.7125667	0.43428603	0.5340257	0.18092874	0.95457554	-0.09946088
1.311697982077762e-09	0.708283	0.4179763	0.5517582	-0.07830359	0.966524	0.08650195
1.3210636906198435e-09	0.7082871	0.39602235	0.5668248	-0.2713864	0.89189214	0.27166384
1.3303539800665889e-09	0.7121629	0.37019914	0.57826674	-0.3902399	0.77275085	0.43560514
1.339603739305408e-09	0.71925926	0.34200117	0.58570117	-0.44999033	0.6375866	0.5719404
1.3491213606027155e-09	0.7292191	0.3120364	0.5889625	-0.46915466	0.49614874	0.6833872
1.3588772094723162e-09	0.7414451	0.28207615	0.5876696	-0.46146208	0.35406858	0.76951206
1.368748481542951e-09	0.7551103	0.2543154	0.5818442	-0.43855995	0.21347332	0.8304754
1.3787594408535498e-09	0.7695415	0.23048012	0.5718382	-0.40868485	0.07248927	0.8674595
1.3888846146942698e-09	0.7839949	0.21228391	0.5583306	-0.37705	-0.06994598	0.88044447
1.3992291755175879e-09	0.7978779	0.20100476	0.5420762	-0.345683	-0.21566652	0.8686105
1.4097491239959053e-09	0.81031615	0.1978177	0.52427274	-0.31420022	-0.36289862	0.830547
1.4204155227616594e-09	0.8204114	0.20320377	0.50630575	-0.27893928	-0.5083963	0.76545596
1.4312593021624808e-09	0.827317	0.21693681	0.4895492	-0.23267165	-0.64789164	0.67311287
1.4421998965732906e-09	0.83023536	0.23783623	0.47549632	-0.16587761	-0.77348834	0.5556804
1.4533575815958823e-09	0.8286883	0.26432317	0.46520472	-0.06641186	-0.8762811	0.41487733
1.4645644040881008e-09	0.82264423	0.29356927	0.45969576	0.07394651	-0.9397067	0.25773618
1.4758637874832164e-09	0.81262887	0.32291144	0.4593083	0.25877	-0.9430836	0.0907639
1.4872833629373026e-09	0.79964995	0.349706	0.46396732	0.4791109	-0.85822946	-0.076812536
1.4976384036763458e-09	0.786638	0.36962274	0.4720217	0.681929	-0.6813457	-0.21611592
1.5073451626291412e-09	0.774451	0.38338968	0.4821837	0.8356062	-0.4185515	-0.32186553
1.516821130304571e-09	0.76344204	0.39166945	0.49379918	0.9055757	-0.08286434	-0.38529894
1.5258634106464148e-09	0.7543989	0.3946155	0.50573236	0.86195844	0.271807	-0.39298776
1.5347086498239401e-09	0.7473837	0.3928788	0.5175434	0.70593494	0.5925467	-0.3401882
1.5440019103552959e-09	0.7422901	0.38644207	0.5294167	0.45304713	0.83852935	-0.22194465
1.5532559733783075e-09	0.739713	0.3758882	0.5400477	0.17402992	0.9576195	-0.057399534
1.5626560213808685e-09	0.7396512	0.3617258	0.54904735	-0.074244514	0.9605643	0.13028242
1.5720400361596319e-09	0.7419919	0.345086	0.55576736	-0.25362682	0.8828092	0.31284097
1.581448292460844e-09	0.7464405	0.32695195	0.5599283	-0.36246216	0.7630729	0.47482377
1.5907488202994713e-09	0.7525178	0.30866387	0.56136715	-0.41414872	0.6294758	0.60780156
1.6002688577675514e-09	0.76001936	0.2906534	0.5601077	-0.42758223	0.4902713	0.71553195
1.609827517063206e-09	0.768381	0.27432632	0.5562447	-0.4165839	0.35243595	0.79695857
1.619480602853248e-09	0.777184	0.2605633	0.5500381	-0.39225167	0.21524115	0.85444653
1.6293423423032337e-09	0.78605515	0.25013047	0.54179275	-0.3617545	0.07575226	0.8892498
1.639352805031323e-09	0.79443675	0.24387994	0.5320739	-0.330008	-0.066294245	0.90066755
1.6495053167589826e-09	0.80180824	0.24231589	0.5215482	-0.2992689	-0.21085541	0.8877786
1.6598102382691927e-09	0.8076712	0.24561602	0.5109511	-0.26901433	-0.3566778	0.84941506
1.6703471318005753e-09	0.8115833	0.25366813	0.50099486	-0.23543258	-0.50184745	0.784105
1.6810786514291362e-09	0.81312215	0.2659151	0.49250683	-0.1916859	-0.6409683	0.6916199
1.6919064621871786e-09	0.81207395	0.28124064	0.4862393	-0.12849924	-0.76586306	0.5741842
1.7029439024995489e-09	0.80845344	0.2984825	0.48264167	-0.03402803	-0.86775017	0.43356866
1.7140894296898695e-09	0.80258447	0.31597167	0.4820398	0.10076238	-0.9308424	0.27587742
1.7253913128066859e-09	0.795015	0.33223283	0.4844384	0.2803246	-0.93420786	0.10750948
1.7368136926415624e-09	0.7865436	0.3458074	0.489569	0.4953124	-0.8496391	-0.061058827
1.747407590121009e-09	0.7787214	0.35495317	0.49624193	0.69783145	-0.6686637	-0.20350817
1.7573712506469995e-09	0.771987	0.3600907	0.5036574	0.8496959	-0.39800727	-0.31029603
1.766988349098049e-09	0.76646864	0.36172202	0.51134896	0.91301906	-0.057755236	-0.37101552
1.7760123186274538e-09	0.7624151	0.36032447	0.5186038	0.86266595	0.29193538	-0.3743745
1.7849255994681078e-09	0.7596303	0.3563275	0.52541983	0.7020014	0.6071566	-0.3172992
1.7943425425783048e-09	0.7581026	0.3495897	0.53186184	0.4471898	0.84568137	-0.19468127
1.8037982225092992e-09	0.7580666	0.3406923	0.537196	0.16912565	0.9568699	-0.02585277
1.8133009374208566e-09	0.759492	0.33021176	0.54112566	-0.07113029	0.9527302	0.16212644
1.8228269944071166e-09	0.76224333	0.31885988	0.54343534	-0.24214609	0.8710337	0.34392318
1.8322392569577179e-09	0.76603854	0.30752617	0.5440362	-0.34219444	0.75147307	0.5019278
1.8415938623306423e-09	0.7706028	0.29682207	0.54300576	-0.38812178	0.6184428	0.6319056
1.8511887930571684e-09	0.77580017	0.28706247	0.54039395	-0.3975587	0.4793548	0.7369726
1.8609617627463293e-09	0.781301	0.27896482	0.53634644	-0.38359743	0.33895877	0.8167153
1.870792527948877e-09	0.7867085	0.2731539	0.5311816	-0.35719457	0.19895115	0.87149227
1.8808445869996077e-09	0.79177094	0.26994365	0.52516323	-0.3254071	0.055755638	0.90270275
1.8910663467343433e-09	0.79611534	0.26963547	0.5187321	-0.29298675	-0.090741314	0.9093772
1.901515142967661e-09	0.7994332	0.27230796	0.5123196	-0.2616541	-0.24095552	0.89009786
1.9121143145552265e-09	0.8014191	0.27777582	0.50646067	-0.23045091	-0.39170596	0.84349835
1.9229895459375726e-09	0.8018873	0.28570262	0.5015637	-0.1942236	-0.5407899	0.7678286
1.934072202447537e-09	0.8007349	0.29541096	0.49808726	-0.14458942	-0.6810566	0.6633002
1.945305387736192e-09	0.79805017	0.305999	0.49634534	-0.07034386	-0.80292284	0.5323501
1.9567474290703394e-09	0.7940701	0.3165601	0.4964763	0.041219752	-0.89391494	0.37828046
1.9683498387403212e-09	0.7892162	0.32608283	0.49845594	0.19882312	-0.93415385	0.20810786
1.980082495527162e-09	0.7840227	0.33369473	0.50205994	0.40107164	-0.8965827	0.031745628
1.9912726400117096e-09	0.77930784	0.33855554	0.50660926	0.614747	-0.76041526	-0.12804583
2.001517622848757e-09	0.7755475	0.3407428	0.51134753	0.79277205	-0.53195614	-0.25288686
2.011364744363028e-09	0.772647	0.3407877	0.51607955	0.9014767	-0.22019263	-0.33690804
2.0206655716552303e-09	0.77065396	0.33906358	0.52043223	0.90500104	0.12915109	-0.36707312
2.0295911437035253e-09	0.7694658	0.3359331	0.52428037	0.7964227	0.4632349	-0.33843678
2.0386895086723803e-09	0.76900446	0.3314453	0.5276775	0.58679646	0.74071556	-0.24778257
2.0481841299718104e-09	0.76933825	0.32564658	0.5304772	0.3146632	0.9146217	-0.0983743
2.057558618672717e-09	0.77046335	0.3191684	0.53235245	0.0576027	0.9637056	0.08023649
2.067026140365985e-09	0.77232885	0.3122972	0.53326005	-0.14507164	0.9182262	0.26535726
2.0765444935915193e-09	0.7748128	0.3055071	0.53315026	-0.2777227	0.8156976	0.43630785
2.0859162735056244e-09	0.7776875	0.29935354	0.5320842	-0.34718335	0.68950534	0.5797605
2.0954199510694847e-09	0.780846	0.29402056	0.5301373	-0.37237373	0.5535399	0.69731015
2.1050935235038392e-09	0.7841071	0.28983706	0.5274217	-0.3680107	0.41443628	0.78921443
2.114921169135659e-09	0.78725755	0.28709823	0.5241156	-0.3461965	0.2740664	0.8562318
2.1248432073028878e-09	0.79007024	0.2860005	0.52046406	-0.31613693	0.13252126	0.8988921
2.1350046362046168e-09	0.7923837	0.28661734	0.5166692	-0.28342965	-0.013321522	0.91760343
2.1453605863054024e-09	0.79399914	0.28893352	0.513023	-0.2515292	-0.16297035	0.9109175
2.155937947831445e-09	0.79477364	0.29279786	0.5097961	-0.22077434	-0.31541348	0.8771274
2.166717305172019e-09	0.7946185	0.29790825	0.5072548	-0.18821329	-0.46712667	0.8147776
