# t (s)	mx ()	my ()	mz ()	m.region1x ()	m.region1y ()	m.region1z ()
0	0	1	0	0	1	0
1.023e-12	-0.024332924	0.9995737	0.015727973	-0.029433545	0.9994184	0.01722253
2.047e-12	-0.048070483	0.9983194	0.031548027	-0.05818877	0.9977067	0.034575827
4.095e-12	-0.0936036	0.9934894	0.06335839	-0.11342676	0.99111134	0.06951714
8.191e-12	-0.17646953	0.9756536	0.12727027	-0.21403459	0.96679264	0.13963416
1.544743300247309e-11	-0.295216	0.9236518	0.2393942	-0.35783386	0.8965687	0.2609265
2.2641937431202234e-11	-0.3781653	0.8558129	0.34637594	-0.45829618	0.80677426	0.3727516
2.9961494632145327e-11	-0.43043283	0.77863556	0.44863868	-0.5237158	0.70716447	0.47467488
3.7491966061147054e-11	-0.4555645	0.6963446	0.5454534	-0.5609162	0.60374844	0.5659169
4.528718633060633e-11	-0.4569951	0.6113218	0.63583004	-0.5761927	0.49963918	0.6460803
5.334882108530693e-11	-0.4383843	0.52475595	0.7182888	-0.5751542	0.39631316	0.71470004
6.164812602793497e-11	-0.40386948	0.4367359	0.791226	-0.56281936	0.29409263	0.7713376
7.016107423558961e-11	-0.35780802	0.3463309	0.8532388	-0.5435289	0.19239679	0.81563556
7.890602556310186e-11	-0.30426744	0.25173852	0.90318936	-0.5207939	0.08984706	0.8472241
8.79306693251537e-11	-0.24689165	0.15090944	0.93977696	-0.49729156	-0.015221331	0.8653544
9.728539581026514e-11	-0.18898383	0.042265	0.9612396	-0.47484767	-0.12422775	0.8687084
1.0699467349738492e-10	-0.13340524	-0.07452025	0.9653814	-0.4542038	-0.23778565	0.8555003
1.1672792159947739e-10	-0.083484575	-0.19402933	0.950763	-0.43515858	-0.35162592	0.8251725
1.2562579768203676e-10	-0.04220957	-0.3031003	0.9210286	-0.41693735	-0.45478323	0.7826749
1.3415722075922887e-10	-0.004456866	-0.40500367	0.8781801	-0.39579576	-0.55175793	0.729128
1.42632567753457e-10	0.034396112	-0.500978	0.82230693	-0.36775404	-0.6449404	0.6642115
1.511640502864135e-10	0.07880374	-0.58930576	0.75353044	-0.3284278	-0.733944	0.5879643
1.595376593355996e-10	0.13177294	-0.6645284	0.67491496	-0.27479813	-0.814438	0.50352293
1.6769504648763098e-10	0.19611989	-0.72296476	0.58910424	-0.20429124	-0.88329875	0.41320324
1.7573259306052384e-10	0.27463412	-0.7615512	0.49731335	-0.11388258	-0.93773043	0.31759188
1.835812757241466e-10	0.36693597	-0.7756415	0.40276814	-0.003378232	-0.97246796	0.21915022
1.9135851902981273e-10	0.47251657	-0.7605965	0.3068142	0.12822255	-0.9817857	0.11814985
1.9911404400638305e-10	0.58771956	-0.7107112	0.2120268	0.27920812	-0.95739865	0.015944045
2.0671714411005345e-10	0.70296013	-0.6229929	0.12370048	0.44059533	-0.89117503	-0.083092436
2.1410784910916516e-10	0.807213	-0.4985425	0.046275742	0.6000728	-0.7776909	-0.17478515
2.214621319599332e-10	0.891656	-0.33794063	-0.01826055	0.7462336	-0.6104028	-0.25684473
2.2887389350048175e-10	0.9453378	-0.14563842	-0.06649787	0.8607266	-0.3863448	-0.3240071
2.36239333342867e-10	0.9579482	0.06388316	-0.094205156	0.91939634	-0.117562614	-0.36775213
2.4351625090513483e-10	0.92618	0.27353197	-0.099546626	0.90465266	0.17230877	-0.38084587
2.50762716247784e-10	0.8529902	0.46872476	-0.082536526	0.8103899	0.4541449	-0.35835832
2.5801292274341135e-10	0.74657553	0.6364631	-0.044413257	0.64532906	0.6954108	-0.29867136
2.652580989714061e-10	0.61966765	0.76724386	0.012020781	0.43440226	0.86943537	-0.20568803
2.72596793577031e-10	0.4845331	0.85853964	0.08394534	0.20740145	0.9665549	-0.08658354
2.801220368349022e-10	0.3528383	0.91096103	0.16845211	-0.0073624398	0.9901838	0.04931117
2.879191505286276e-10	0.23495747	0.9275111	0.26249003	-0.18885024	0.95347023	0.19218984
2.960363838721159e-10	0.13965137	0.91286784	0.36247134	-0.32549587	0.87420696	0.3329054
3.042658001531398e-10	0.07432307	0.8740597	0.46174896	-0.41355547	0.7727469	0.4610653
3.127433839243403e-10	0.038816348	0.8167565	0.5583529	-0.46161652	0.66075677	0.575364
3.2161957038545626e-10	0.032046594	0.7438057	0.6505165	-0.4783097	0.5434915	0.6757656
3.310325987505813e-10	0.052299798	0.65571165	0.73583394	-0.4712115	0.42212692	0.7620137
3.4081819276969353e-10	0.09517285	0.55420065	0.8089272	-0.44798952	0.2987492	0.83120817
3.508987761040738e-10	0.15379491	0.43974748	0.86578727	-0.4162294	0.17250475	0.8818249
3.6095709271662913e-10	0.21872893	0.316445	0.90237814	-0.38313043	0.045300677	0.91178226
3.7092220610757493e-10	0.28285897	0.18743357	0.91773343	-0.35305595	-0.08303858	0.9209131
3.809728772087202e-10	0.34298402	0.05424996	0.91168994	-0.32729432	-0.21459295	0.90878993
3.9123197841053806e-10	0.3979814	-0.07920549	0.8835579	-0.30504876	-0.34952417	0.8738044
4.0126965248719664e-10	0.4468461	-0.20072058	0.8358159	-0.28387833	-0.4796748	0.8174809
4.110830136851327e-10	0.49335897	-0.30416209	0.7719053	-0.25813472	-0.60208505	0.7420673
4.20999754441338e-10	0.54368407	-0.3866272	0.69293606	-0.21960758	-0.71726286	0.6470586
4.3062227541858804e-10	0.59972644	-0.43928736	0.60598123	-0.16227697	-0.81638104	0.5391236
4.398609441406694e-10	0.66220903	-0.45906332	0.5167069	-0.081830315	-0.8942195	0.42358258
4.4896714766683676e-10	0.73129994	-0.4443755	0.4272408	0.02677849	-0.94685394	0.30120626
4.5791713639749483e-10	0.80249685	-0.39347583	0.34222662	0.1637474	-0.9654728	0.17588696
4.668714473610389e-10	0.86989576	-0.30513817	0.2647108	0.32801422	-0.93878895	0.049213305
4.756495894131969e-10	0.9231533	-0.18434691	0.20063162	0.5062776	-0.85485107	-0.071666434
4.844598649280261e-10	0.95431197	-0.035531856	0.15245283	0.68444884	-0.7002954	-0.18350624
4.932616378075811e-10	0.9555701	0.12984666	0.12389606	0.8340381	-0.4689967	-0.2771328
5.020095873900206e-10	0.9240422	0.2968312	0.11691937	0.92002267	-0.17033514	-0.34101963
5.108409684258626e-10	0.8616046	0.4532975	0.13174531	0.9106325	0.17178933	-0.36322042
5.197921037536874e-10	0.7751833	0.5866712	0.16744775	0.78769916	0.5085772	-0.33177888
5.287497106350406e-10	0.6773514	0.6865599	0.22054033	0.5693264	0.7770046	-0.24385478
5.377983405702065e-10	0.57986915	0.7506811	0.2871416	0.30274817	0.9391003	-0.108121485
5.469710829884898e-10	0.49354267	0.7800554	0.36274138	0.045023482	0.98890483	0.056983873
5.562948771777313e-10	0.42632872	0.7783335	0.44272828	-0.16226347	0.9497402	0.23030809
5.658881516692818e-10	0.3823979	0.7497922	0.52347267	-0.3044165	0.8543136	0.3966047
5.758422607160457e-10	0.36358213	0.6978456	0.60120505	-0.38436896	0.7294778	0.54643834
5.860122705387435e-10	0.36897677	0.6265986	0.6705309	-0.4138173	0.5944372	0.6728013
5.962900825525533e-10	0.3940682	0.54003614	0.7272264	-0.40905234	0.45793518	0.7739792
6.068254659038798e-10	0.43357623	0.43968436	0.7690406	-0.38402086	0.31877893	0.8518674
6.175860053925139e-10	0.4816247	0.32897925	0.79303664	-0.34950316	0.17553034	0.905707
6.288606071461735e-10	0.5343707	0.20943388	0.7970185	-0.31269395	0.022228416	0.9344626
6.403730666315726e-10	0.58686304	0.09074843	0.7790223	-0.2799248	-0.13799657	0.93390656
6.522008638021972e-10	0.6381959	-0.018819027	0.73910123	-0.25235984	-0.304248	0.9008795
6.639999607518504e-10	0.6880985	-0.10633457	0.68100667	-0.22660844	-0.4671909	0.8349657
6.75720366348771e-10	0.7385731	-0.16313812	0.60999316	-0.19315097	-0.62007374	0.7382983
6.8681888407906e-10	0.7881073	-0.18286362	0.53584915	-0.14222339	-0.7498206	0.62108654
6.975755857197051e-10	0.8361649	-0.16652535	0.46306506	-0.063310705	-0.8535596	0.4877498
7.083091350837336e-10	0.8798367	-0.11447658	0.39510754	0.05369391	-0.9244336	0.34028584
7.18836409876226e-10	0.9122044	-0.031333	0.3382634	0.20947903	-0.9471049	0.18724059
7.290431304558866e-10	0.9272578	0.073378354	0.2968253	0.39470175	-0.90604633	0.037154093
7.391604226900103e-10	0.9216007	0.19116661	0.27223784	0.5950075	-0.78383154	-0.105381735
7.493343284480721e-10	0.893794	0.3121018	0.26578507	0.78092444	-0.5630179	-0.23120579
7.594755169330751e-10	0.8466532	0.42345983	0.27756897	0.90314233	-0.24557883	-0.32322848
7.691154858618455e-10	0.7895951	0.51196843	0.3040641	0.9139342	0.11725888	-0.3619116
7.781880012246576e-10	0.7315446	0.5748472	0.34020343	0.8067874	0.45978197	-0.34114286
7.87257686495813e-10	0.67557234	0.61590946	0.3843025	0.5988836	0.7412202	-0.26062766
7.972168646596232e-10	0.62264496	0.636182	0.43822628	0.31122154	0.92811364	-0.11431404
8.072703693131419e-10	0.58286464	0.63258123	0.49451044	0.033493105	0.97962373	0.068557866
8.172181011456289e-10	0.5591448	0.60856074	0.5483228	-0.17732437	0.92911077	0.25515252
8.271882650078916e-10	0.550838	0.56765974	0.59721065	-0.31142554	0.8219251	0.42721334
8.371802033821887e-10	0.5562249	0.51325095	0.6385587	-0.3794889	0.6907076	0.57484335
8.473993388000004e-10	0.5730069	0.44719914	0.67087376	-0.40016174	0.5496749	0.6976421
8.577911868399549e-10	0.5983302	0.37292612	0.69190836	-0.38957384	0.4056246	0.79420334
8.683425758797328e-10	0.6292132	0.29427934	0.70023435	-0.36150604	0.25912985	0.8646409
8.790871382338449e-10	0.6632391	0.2154914	0.69514465	-0.32614246	0.10815987	0.90875405
8.903646711185157e-10	0.699745	0.1396609	0.67591375	-0.28933764	-0.053333975	0.92511326
9.018436513571117e-10	0.73665035	0.075558715	0.64362574	-0.255696	-0.22002393	0.909646
9.137253668985181e-10	0.77405465	0.028956428	0.5997857	-0.22331724	-0.39149505	0.8590113
9.256265449126836e-10	0.81001335	0.0071997247	0.54933095	-0.18601179	-0.55621237	0.77366287
9.37766738084271e-10	0.84340036	0.013617199	0.49603748	-0.13022988	-0.7085974	0.65360665
9.499102063311562e-10	0.870281	0.048984412	0.4461413	-0.041192196	-0.83376473	0.5052462
9.618860060664794e-10	0.88632476	0.10882399	0.40518132	0.09227577	-0.9144269	0.33831248
9.737385608928285e-10	0.88827723	0.18577024	0.37666804	0.2740261	-0.92996013	0.16174372
9.853129570347553e-10	0.87500614	0.26912856	0.36286384	0.48952004	-0.85559785	-0.010824597
9.962850486385665e-10	0.84935737	0.34694046	0.36340365	0.70010823	-0.67789376	-0.161321
1.0063313608615496e-09	0.8173231	0.41058597	0.37502906	0.85618883	-0.41287646	-0.27262
1.0160727829133563e-09	0.7819193	0.46090454	0.39516538	0.92616665	-0.07588963	-0.33889845
1.025387714570552e-09	0.74751246	0.49600214	0.42089647	0.8822047	0.27893743	-0.3478956
1.0344052673235618e-09	0.7166432	0.51679003	0.45001778	0.72976905	0.5942716	-0.29675934
1.043829732427193e-09	0.6894641	0.5246229	0.48284954	0.48744392	0.8348472	-0.18316382
1.0536555755407713e-09	0.66855884	0.51857257	0.51745117	0.21000211	0.95728713	-0.017842405
1.0632961343693702e-09	0.65633756	0.50010234	0.54965895	-0.02573471	0.9624226	0.1639855
1.0729083549546115e-09	0.65229875	0.47128722	0.57822484	-0.19422786	0.8911669	0.34098017
1.0824406614404805e-09	0.6555859	0.43459326	0.6015936	-0.29419795	0.78079414	0.49807504
1.0921836677506993e-09	0.6652211	0.3910823	0.61923933	-0.34084827	0.65123236	0.6336121
1.102349696927128e-09	0.68046755	0.3419102	0.6301183	-0.3481372	0.51067924	0.74705565
1.112822225285843e-09	0.7000174	0.29031035	0.63289773	-0.3289538	0.3644479	0.83532053
1.123338256348839e-09	0.7220179	0.24080561	0.627224	-0.29605585	0.2160135	0.8962009
1.134062048042872e-09	0.74558914	0.1960643	0.61341506	-0.2581386	0.061841197	0.9303225
1.1452846951706448e-09	0.7703498	0.15885638	0.5916609	-0.21995541	-0.10268776	0.93559647
1.1565508766780275e-09	0.79426473	0.13436362	0.56428576	-0.18511797	-0.26914445	0.90896404
1.1679566459058292e-09	0.81637216	0.12481264	0.53339845	-0.15051709	-0.4346045	0.84920514
1.1794301845520544e-09	0.8350774	0.13153346	0.50188416	-0.10857794	-0.59144515	0.75686294
1.1910171857622336e-09	0.8487115	0.1542218	0.47247404	-0.047189638	-0.7313918	0.63376224
1.2026533779128336e-09	0.8554257	0.1906476	0.44804385	0.046899997	-0.8416108	0.48503402
1.214220040530851e-09	0.8539788	0.23644772	0.43095228	0.18294476	-0.90493625	0.31931412
1.2259344337477628e-09	0.8439971	0.28746536	0.4223387	0.3658393	-0.8994996	0.14267273
1.2370402017843295e-09	0.82750005	0.33512777	0.42268556	0.56850344	-0.8043964	-0.021683441
1.2477876451812847e-09	0.8067775	0.37640196	0.43053606	0.7613071	-0.6079454	-0.16378973
1.2578643001020292e-09	0.7851511	0.40789306	0.44372755	0.89564824	-0.32561272	-0.26549575
1.2675312613022756e-09	0.7643597	0.4298249	0.46055222	0.93701035	0.014007332	-0.3169824
1.2767161333500164e-09	0.7461531	0.4423412	0.4791432	0.8685627	0.35389665	-0.31010422
1.285826791949608e-09	0.73081946	0.44655496	0.49890506	0.6995122	0.64929795	-0.24365282
1.2956246675763412e-09	0.71835893	0.44230866	0.52028906	0.4475888	0.86555016	-0.11329774
1.3053150512979496e-09	0.7107277	0.42998892	0.54025716	0.19095641	0.95655566	0.054533873
1.314779381880099e-09	0.7079047	0.41132694	0.5574895	-0.016853344	0.9459261	0.23077682
1.3243254586713727e-09	0.7094331	0.38727838	0.57166994	-0.16240042	0.8702985	0.40077516
1.3337680987152107e-09	0.7147444	0.35986978	0.5818546	-0.24518761	0.76163733	0.5497991
1.3433828088357988e-09	0.72333425	0.3299421	0.58785665	-0.28017443	0.6359936	0.6773157
1.3533502757596194e-09	0.73480356	0.2986226	0.5892372	-0.28028178	0.49972633	0.78305113
1.3636029599100674e-09	0.74843615	0.2680935	0.58562684	-0.25723994	0.35651717	0.8647293
1.374120753377665e-09	0.76345384	0.24059252	0.57707906	-0.22165173	0.2064243	0.92106336
1.3848710995644186e-09	0.7789966	0.21840185	0.5640937	-0.18191224	0.049111273	0.9502726
1.395749363589192e-09	0.79404926	0.20362777	0.54773474	-0.14373958	-0.11344678	0.9502484
1.406888786918643e-09	0.80785537	0.1975829	0.52907753	-0.1082337	-0.28063214	0.9187396
1.418193927308155e-09	0.8192656	0.20119444	0.5098192	-0.072635055	-0.4458962	0.8540911
1.4295494142380007e-09	0.82718074	0.2141718	0.49182928	-0.029296873	-0.6001842	0.7573153
1.4411394645558113e-09	0.8308226	0.23558903	0.4764593	0.034662392	-0.7359902	0.6289889
1.4528152491495302e-09	0.8295169	0.26314473	0.4653435	0.13219155	-0.8378987	0.47522992
1.4645311172050865e-09	0.8232651	0.29384628	0.4594648	0.27275112	-0.8873304	0.30433017
1.4763677247141113e-09	0.81262577	0.32471532	0.45921606	0.4573126	-0.8596357	0.12564716
1.4876141668772134e-09	0.7996577	0.3511094	0.46405095	0.65486467	-0.7359135	-0.036484823
1.4984519242474552e-09	0.7858769	0.37177104	0.47276175	0.8297125	-0.50967735	-0.16955903
1.508882081216546e-09	0.77270436	0.38592815	0.48406073	0.9348293	-0.1964216	-0.2575081
1.5184265387470224e-09	0.7616957	0.3933468	0.49607444	0.9353284	0.14170288	-0.28669822
1.5275746224456484e-09	0.7527665	0.39532164	0.5083237	0.83240026	0.4614587	-0.2577818
1.536999177394278e-09	0.745736	0.39224264	0.52092755	0.63673943	0.72863925	-0.16863808
1.5468832254504122e-09	0.7410808	0.38390863	0.5333203	0.3853792	0.8984183	-0.023370408
1.556656051604841e-09	0.7393494	0.37129432	0.5439988	0.15066819	0.95103467	0.1488824
1.566208391789633e-09	0.74033195	0.35570985	0.5523329	-0.02708439	0.9171919	0.3214603
1.575891690668558e-09	0.74376273	0.3377166	0.55822706	-0.14386585	0.8300498	0.4838312
1.5854974996152423e-09	0.7492035	0.31882992	0.56128025	-0.20350808	0.7165924	0.62362874
1.5953185400399617e-09	0.7563902	0.2996534	0.5614481	-0.22100665	0.58806634	0.7414988
1.6054468242210582e-09	0.76497734	0.28125942	0.5586088	-0.20868705	0.44930935	0.836385
1.6159129791043463e-09	0.7745028	0.26496202	0.55279267	-0.17769447	0.30134863	0.90684533
1.6267243124844937e-09	0.78439	0.25215688	0.54427516	-0.1376454	0.14366339	0.95077884
1.6378900393873536e-09	0.79396814	0.24414301	0.5336034	-0.095934354	-0.023920463	0.96520936
1.6493113164063654e-09	0.8024087	0.24195069	0.5217123	-0.057019427	-0.1978382	0.9467232
1.661045879652894e-09	0.8089865	0.24602407	0.5095968	-0.019938229	-0.37384504	0.8922281
1.6730000762883116e-09	0.81294173	0.25613734	0.49851143	0.021855922	-0.54218227	0.80058867
1.6850793568970838e-09	0.81376857	0.271209	0.4896316	0.08054526	-0.6902486	0.6741958
1.697405417929711e-09	0.81128514	0.2897965	0.4837774	0.17246939	-0.80420583	0.51648676
1.709878889809814e-09	0.80570406	0.30972782	0.48160434	0.31041777	-0.86156994	0.33694425
1.7223820888448609e-09	0.7977612	0.32861942	0.48324722	0.49441302	-0.83393866	0.14995924
1.733977169153972e-09	0.7891956	0.3434578	0.48786384	0.68751264	-0.7056421	-0.014494901
1.7450214450035012e-09	0.78082484	0.3540682	0.494499	0.85393536	-0.475158	-0.14568852
1.7554764761411752e-09	0.7734059	0.36033192	0.5021973	0.94770896	-0.16557792	-0.22832376
1.765027674668507e-09	0.7675312	0.3626082	0.50989765	0.940644	0.1632295	-0.25264186
1.7742791605738028e-09	0.7629812	0.36167458	0.5174857	0.834752	0.47367504	-0.21992892
1.783934200721671e-09	0.7596638	0.357592	0.5250631	0.63905495	0.7326704	-0.12689213
1.7938952391269424e-09	0.75792426	0.35044694	0.5320364	0.39728054	0.8914928	0.01836723
1.8037702506887161e-09	0.7579226	0.34100384	0.53768396	0.17468475	0.93866056	0.18855442
1.813503000101443e-09	0.7595134	0.3300943	0.5417038	0.0073038065	0.90311897	0.35919306
1.8233362215572624e-09	0.7625333	0.31822777	0.54400766	-0.09984563	0.81613064	0.51838934
1.833140152836717e-09	0.76668954	0.30633855	0.54447013	-0.15208234	0.7024114	0.65542763
1.8431486942956192e-09	0.7717836	0.2949283	0.5431003	-0.16355474	0.57283187	0.7698723
1.8532552800647049e-09	0.77743423	0.28488785	0.53999954	-0.14717807	0.4345516	0.85905766
1.8637252427917143e-09	0.7834224	0.27672237	0.53526884	-0.11392233	0.2854525	0.9240533
1.874521614778156e-09	0.78931224	0.27122176	0.52920425	-0.07302342	0.12599061	0.9621598
1.885648018177663e-09	0.79464364	0.2689882	0.52224445	-0.031418815	-0.043175403	0.9703378
1.8970660406740385e-09	0.7989255	0.27037352	0.51498747	0.007292557	-0.21842454	0.94518566
1.9090041660079946e-09	0.80176127	0.27550447	0.5079675	0.045443103	-0.3968881	0.8823117
1.9211591614780522e-09	0.802701	0.28390902	0.502075	0.090169705	-0.563987	0.7813715
1.933702588134939e-09	0.80157906	0.29487914	0.49787527	0.15657337	-0.708079	0.6425979
1.946603478692993e-09	0.7984288	0.30722612	0.4959079	0.26236957	-0.80871683	0.47151405
1.959792481087666e-09	0.79360783	0.31945238	0.49645132	0.4199694	-0.83695227	0.27962476
1.9723800642095768e-09	0.78813577	0.3294659	0.49918622	0.60984796	-0.7641958	0.09644532
1.983949233068925e-09	0.78294253	0.33641273	0.5032555	0.79013413	-0.58775866	-0.054422304
1.9948868295188676e-09	0.7783452	0.34054232	0.5080687	0.9212832	-0.3179603	-0.16284671
2.0049052758352402e-09	0.7747006	0.3420705	0.5129343	0.9639006	-0.0019035232	-0.21568559
2.0143364481150775e-09	0.7719522	0.34152466	0.517602	0.9093084	0.31495526	-0.21214244
2.0238254754803213e-09	0.7699843	0.33912668	0.52209973	0.7625711	0.5992492	-0.15137158
2.0339322300450144e-09	0.7688655	0.33475477	0.52637815	0.54119116	0.81300384	-0.030462045
2.043885140139892e-09	0.7687942	0.3289636	0.52981484	0.31328732	0.9133554	0.12629211
2.0538554345831343e-09	0.7697224	0.32213432	0.5322807	0.12198414	0.91773033	0.29718003
2.0637442474435874e-09	0.7715333	0.31484377	0.53363395	-0.0098085385	0.85622746	0.46091607
2.073704084320655e-09	0.7740935	0.30749634	0.533851	-0.08427708	0.75566685	0.6078398
2.0837460585027454e-09	0.7772181	0.3005843	0.5329401	-0.1116264	0.633714	0.73199564
2.0938351121260298e-09	0.78067344	0.29459363	0.53099436	-0.10546451	0.5001091	0.83083767
2.1041272008373105e-09	0.78427273	0.28985217	0.52813023	-0.078257166	0.35631627	0.90497774
2.11488913133266e-09	0.78784454	0.28667563	0.5244492	-0.039192244	0.19923589	0.95394385
2.1258858355199386e-09	0.79102093	0.285483	0.52029145	0.0028752936	0.03288418	0.9736073
2.137192422509152e-09	0.7935399	0.28642425	0.5159727	0.04308174	-0.14135088	0.9611404
2.1488748555330952e-09	0.7951492	0.2895086	0.5118574	0.08097391	-0.31902874	0.9129621
2.161017988752758e-09	0.79563713	0.2945684	0.50833654	0.122203745	-0.49217308	0.8257046
2.173450761745145e-09	0.7948934	0.3010751	0.50584877	0.1783394	-0.6451344	0.70058566
2.1862122010167765e-09	0.7929783	0.308356	0.5046746	0.26614478	-0.76070726	0.54164636
2.199368026777385e-09	0.7900947	0.31562263	0.50497556	0.40147406	-0.814059	0.35695502
2.2128212695282534e-09	0.7866287	0.32196036	0.5067363	0.5857103	-0.76972103	0.16283181
2.2249185935004686e-09	0.78345966	0.32616735	0.5093285	0.76743245	-0.6178099	0.0021882458
2.2362777596710617e-09	0.78072834	0.3285474	0.5123551	0.9093026	-0.3671996	-0.11702135
2.2465855073187696e-09	0.7786264	0.32929325	0.5153573	0.96886486	-0.063004225	-0.18073907
2.2562031852876737e-09	0.7770846	0.3287754	0.5181817	0.9343989	0.25010717	-0.1884529
