# t (s)	mx ()	my ()	mz ()	m.region1x ()	m.region1y ()	m.region1z ()
0	0	1	0	0	1	0
1.023e-12	-0.024333246	0.99957365	0.015728006	-0.029839741	0.99940556	0.017266376
2.047e-12	-0.048071124	0.9983194	0.03154809	-0.058997355	0.99765587	0.03466905
4.095e-12	-0.09360487	0.99348915	0.063358516	-0.11502066	0.9909133	0.06972145
8.191e-12	-0.176472	0.97565293	0.12727052	-0.21708399	0.9660474	0.14008196
1.5450193142799363e-11	-0.29525855	0.9236264	0.2394365	-0.36301237	0.8942346	0.2617696
2.2644228923299365e-11	-0.3781922	0.85578644	0.3464091	-0.46490434	0.80255497	0.37364298
2.99632952146998e-11	-0.430449	0.77861124	0.44866234	-0.5313638	0.7010249	0.47522143
3.749367563709393e-11	-0.4555754	0.6963195	0.5454729	-0.5694667	0.5958027	0.56570506
4.528867928207005e-11	-0.45700288	0.61129814	0.63584363	-0.5857179	0.49007	0.64471525
5.335250871942245e-11	-0.4383832	0.52470785	0.71831965	-0.5858603	0.3852901	0.7118633
6.165108100831226e-11	-0.40386817	0.43669498	0.791244	-0.5749617	0.28186688	0.76673454
7.016377028109443e-11	-0.35780764	0.34629193	0.85324883	-0.5573386	0.17919676	0.809059
7.890992709777699e-11	-0.3042605	0.25168538	0.9031991	-0.5364263	0.0759199	0.83850604
8.79330391670445e-11	-0.2468968	0.15087236	0.93977326	-0.5148002	-0.029546948	0.8543431
9.728568195182447e-11	-0.18900461	0.042252325	0.961227	-0.49411684	-0.13862409	0.85529643
1.0699504124118849e-10	-0.13342765	-0.07453277	0.9653667	-0.47488996	-0.25195086	0.83963174
1.1672811073739398e-10	-0.083509386	-0.19403811	0.9507468	-0.45664755	-0.36527365	0.8069544
1.2562453495686963e-10	-0.042241532	-0.3030899	0.9210176	-0.43848544	-0.4677526	0.7624902
1.3415329481944735e-10	-0.0045005856	-0.40496138	0.87818635	-0.41673535	-0.5639385	0.70729136
1.4263033330323287e-10	0.034359507	-0.500956	0.82230663	-0.38742825	-0.6562932	0.64097095
1.5116301109531412e-10	0.07877275	-0.58929724	0.7535232	-0.34622929	-0.744368	0.563619
1.5953827779780718e-10	0.13175316	-0.6645346	0.67489314	-0.29027122	-0.82384235	0.47840533
1.6769722578434302e-10	0.19611587	-0.7229792	0.58906543	-0.21715681	-0.8915497	0.38763362
1.757344954689485e-10	0.27463236	-0.76155937	0.4972769	-0.12401508	-0.944609	0.29186708
1.8358373995734996e-10	0.3669459	-0.7756443	0.40272465	-0.010802569	-0.9777152	0.19348416
1.913604234198489e-10	0.4725234	-0.7605928	0.30677795	0.12334471	-0.9850267	0.092720896
1.9911445051769638e-10	0.5877063	-0.71071345	0.21200943	0.2765689	-0.9581423	-0.009126354
2.0671846419356784e-10	0.702962	-0.62298167	0.12367301	0.43972895	-0.88881534	-0.10777455
2.141097450293808e-10	0.80722195	-0.49851453	0.046243787	0.6001905	-0.7715385	-0.19901514
2.2146450588665158e-10	0.89166546	-0.3378926	-0.01829369	0.7461646	-0.5996127	-0.28046992
2.2887706596098966e-10	0.94534135	-0.14555903	-0.066530704	0.8586458	-0.3701108	-0.34666437
2.3624253651892397e-10	0.9579338	0.06397114	-0.094230294	0.91275203	-0.095780574	-0.3887478
2.435200502807473e-10	0.9261406	0.27363834	-0.09956236	0.8905697	0.1985164	-0.39913982
2.5076679575774453e-10	0.85292333	0.46883088	-0.08253972	0.78643566	0.48198774	-0.37267166
2.580172601968468e-10	0.7464827	0.6365577	-0.044402502	0.6106465	0.7207024	-0.30785352
2.652623070342452e-10	0.61956203	0.7673118	0.012042078	0.39049238	0.8877472	-0.20922136
2.72600828905385e-10	0.48442435	0.85857874	0.08397412	0.15762813	0.9745947	-0.084798425
2.801269483647472e-10	0.35271698	0.91097766	0.16849747	-0.05891212	0.9866117	0.05525673
2.8792432157697e-10	0.23484366	0.9275	0.2625422	-0.23858055	0.938891	0.200522
2.960410173601093e-10	0.13955934	0.91283536	0.36251694	-0.37124556	0.85055006	0.34165064
3.0427467497477597e-10	0.07422067	0.8739864	0.46184164	-0.45496324	0.7424532	0.46855813
3.1275409559443047e-10	0.038738694	0.8166505	0.5584567	-0.499362	0.62592185	0.5802323
3.2163123781017995e-10	0.032000136	0.74367535	0.65061545	-0.5137153	0.5056647	0.6770001
3.31046259097365e-10	0.052285817	0.6555482	0.7359302	-0.5058594	0.3824272	0.7588583
3.408338914712948e-10	0.095189266	0.5540018	0.80901134	-0.4834111	0.25811177	0.8231919
3.5091628601084093e-10	0.15383315	0.43951425	0.86584777	-0.4535782	0.13177826	0.86867595
3.60975196796522e-10	0.21877071	0.31619358	0.90240294	-0.42291942	0.005320338	0.89351404
3.709411512211127e-10	0.2828969	0.18716663	0.9177197	-0.39512125	-0.12151191	0.8976913
3.809898434297378e-10	0.34299704	0.0540137	0.9116393	-0.37089252	-0.25082213	0.88082033
3.912500808316731e-10	0.39798892	-0.079441115	0.8834687	-0.34883955	-0.38296577	0.84138215
4.012854694128953e-10	0.44683737	-0.20090353	0.83570784	-0.3261313	-0.510039	0.78126675
4.1109829209962116e-10	0.4933508	-0.30430815	0.7717787	-0.29704797	-0.62934685	0.70279795
4.210155639301212e-10	0.5436897	-0.3867384	0.6927887	-0.25335366	-0.74134487	0.6054615
4.3063559239222657e-10	0.599733	-0.43934327	0.60584724	-0.18956892	-0.83718336	0.49610493
4.398741912258336e-10	0.66223	-0.4590783	0.5165709	-0.101954736	-0.9114879	0.37993532
4.4897797277467985e-10	0.7313135	-0.44435567	0.42713112	0.014109076	-0.9598786	0.25768095
4.579278676655931e-10	0.80251443	-0.39342225	0.34212434	0.1582599	-0.97321355	0.13309151
4.668844745851194e-10	0.8699263	-0.30502415	0.26460022	0.3288811	-0.93969697	0.0077020777
4.756640785788209e-10	0.92317474	-0.18417363	0.20052868	0.5116153	-0.84722674	-0.11133712
4.844732491845331e-10	0.9542999	-0.035347525	0.15237871	0.6912743	-0.6822634	-0.22061065
4.932777598476643e-10	0.9555179	0.13009822	0.123840824	0.8379349	-0.43915784	-0.310699
5.020273482676321e-10	0.9239327	0.2971108	0.11689745	0.91506356	-0.12926184	-0.36948144
5.108618572037228e-10	0.86141825	0.45360243	0.13176915	0.890446	0.2203849	-0.38433537
5.198189016308413e-10	0.7748907	0.58699614	0.16754267	0.7481223	0.55680656	-0.34309557
5.287740790905782e-10	0.67706203	0.6867657	0.22066358	0.5122569	0.81454235	-0.24423474
5.378219759896621e-10	0.579595	0.7507897	0.28728864	0.23544207	0.9584284	-0.09847112
5.469923734155132e-10	0.4933203	0.7800751	0.36288476	-0.023203382	0.98802847	0.07357424
5.563164562217301e-10	0.42614654	0.7782863	0.4428777	-0.22459309	0.931677	0.24982081
5.659098038368619e-10	0.38226345	0.74969006	0.5236157	-0.35808155	0.82408684	0.41525906
5.756901709292512e-10	0.36360294	0.6987713	0.60005	-0.42927426	0.69419533	0.5590902
5.855504089245837e-10	0.3681799	0.63016087	0.66761714	-0.45390782	0.55944866	0.6772896
5.954333069322753e-10	0.39128172	0.5477181	0.72304463	-0.44867352	0.42637715	0.77040285
6.05576662897868e-10	0.42827782	0.45207134	0.76498103	-0.4260915	0.2919743	0.8417499
6.159140365774419e-10	0.47377685	0.34654135	0.7905717	-0.39546606	0.15525275	0.89070886
6.267578594859048e-10	0.52443576	0.23171633	0.797908	-0.3626734	0.010047004	0.9167825
6.377885896015125e-10	0.57517695	0.11668739	0.78492963	-0.33312246	-0.14023124	0.91633767
6.493670139749987e-10	0.6259706	0.00580545	0.7504882	-0.30712584	-0.29935962	0.8858531
6.609472888530153e-10	0.67505866	-0.08626878	0.69754773	-0.28251833	-0.45644328	0.82440025
6.72699228567333e-10	0.7252554	-0.15178598	0.62927043	-0.25026968	-0.60852796	0.73155594
6.839511610789618e-10	0.77506185	-0.18121874	0.5553528	-0.20096222	-0.7410182	0.61664593
6.947597863463674e-10	0.82365394	-0.17430985	0.48191646	-0.12500945	-0.84871674	0.48617774
7.054749308707975e-10	0.8689433	-0.1316592	0.41230989	-0.012482075	-0.92636967	0.34206203
7.160963440205474e-10	0.9050603	-0.055810165	0.35186872	0.14071007	-0.96034676	0.18992606
7.263696240447831e-10	0.9250918	0.044043366	0.3061843	0.32571733	-0.9340979	0.039732162
7.364874782002028e-10	0.9251683	0.159196	0.27701333	0.5297423	-0.83060575	-0.10409495
7.466829766844226e-10	0.9030614	0.28088793	0.26565468	0.7282065	-0.6294453	-0.23483396
7.568044016382619e-10	0.86063707	0.39548752	0.27273574	0.872364	-0.32776767	-0.33569974
7.665046284684381e-10	0.8058312	0.4899336	0.29550305	0.9105065	0.035143636	-0.38706955
7.75553823536015e-10	0.7484678	0.55871284	0.32869092	0.8263024	0.38966113	-0.37921587
7.844475508553561e-10	0.69236726	0.60548383	0.36989844	0.6342144	0.6903724	-0.31140834
7.939431747139586e-10	0.6387353	0.6322474	0.42002907	0.35586753	0.9016291	-0.17947139
8.038823285450283e-10	0.5945273	0.6362839	0.4755029	0.060084682	0.9812979	0.00091159344
8.136612185933834e-10	0.5657595	0.6192595	0.52943575	-0.17446016	0.9458398	0.19028838
8.234176572661521e-10	0.55217814	0.5848916	0.5794248	-0.33067164	0.84397984	0.36734927
8.331697096274788e-10	0.55249196	0.5365007	0.62296104	-0.41655332	0.7131898	0.52029806
8.430059608773281e-10	0.5645021	0.47668007	0.6582695	-0.45077118	0.5732405	0.64668155
8.529256972902072e-10	0.58553576	0.40837303	0.68356663	-0.45092165	0.43250895	0.7465662
8.630764220221129e-10	0.6132051	0.33369753	0.6977068	-0.430841	0.29041836	0.8221365
8.732839896425932e-10	0.6445329	0.2576219	0.699542	-0.40116373	0.1481021	0.8725624
8.838506754058846e-10	0.6784942	0.18231544	0.68865997	-0.36812913	-0.00033404736	0.89847004
8.947554188401443e-10	0.7137755	0.1133088	0.6649394	-0.3359501	-0.15528361	0.89706165
9.059961843371926e-10	0.7496871	0.056751132	0.6293303	-0.3053815	-0.31551522	0.86525667
9.174052440130639e-10	0.78523695	0.019414887	0.5846943	-0.27309024	-0.4751431	0.80150163
9.289067534049957e-10	0.8193207	0.0060347654	0.5349279	-0.23069522	-0.62747014	0.70644367
9.40629645189622e-10	0.850327	0.019400813	0.48380935	-0.16498119	-0.7659696	0.5809171
9.522764594224473e-10	0.87427163	0.058966532	0.43729454	-0.06393946	-0.8757499	0.43262857
9.63794912763847e-10	0.8875284	0.12016112	0.39973015	0.08110656	-0.94129467	0.26944965
9.752359639795471e-10	0.8873096	0.19618532	0.37409133	0.27154037	-0.9422138	0.09908248
9.866749915221833e-10	0.87239206	0.2788811	0.36221918	0.4956414	-0.8516297	-0.06938085
9.96922978547358e-10	0.8474832	0.35110104	0.3638267	0.6971625	-0.67017144	-0.20711876
1.0065729189339577e-09	0.81646395	0.41182727	0.37539896	0.8478	-0.40371814	-0.31161183
1.0161627219423204e-09	0.78159165	0.46116558	0.3953351	0.91344523	-0.061137654	-0.37442428
1.025392731087799e-09	0.7475156	0.49590224	0.42084262	0.86158425	0.29947466	-0.3799049
1.034344366021165e-09	0.71685964	0.5166096	0.4497297	0.69770086	0.6172588	-0.3240325
1.0437129121845172e-09	0.6897707	0.52455735	0.48234713	0.44198623	0.8546615	-0.20401046
1.0533493131985605e-09	0.6690726	0.51893944	0.5162984	0.15726593	0.96694416	-0.034279052
1.0629209032539066e-09	0.65662223	0.501024	0.54837286	-0.08462719	0.96131694	0.15254214
1.072431120874768e-09	0.6522575	0.47293925	0.576831	-0.25481427	0.8799556	0.33174738
1.081826027569188e-09	0.655095	0.43718097	0.6001825	-0.3545652	0.7623348	0.48839468
1.0914161062286691e-09	0.664163	0.39470488	0.6180301	-0.40124848	0.62828475	0.62192154
1.1012361427524255e-09	0.67846876	0.3474366	0.62925977	-0.40976495	0.4882973	0.73076
1.1111071773562587e-09	0.69648063	0.29873925	0.63298345	-0.39420408	0.34839645	0.81349236
1.121081794792052e-09	0.71701705	0.2511225	0.62909776	-0.36587	0.20746936	0.87174416
1.131198335524084e-09	0.73908806	0.20731924	0.61781585	-0.33249137	0.06357934	0.905843
1.1417573661313349e-09	0.76245654	0.16935806	0.59919256	-0.29803848	-0.088447616	0.9148121
1.1525752777323743e-09	0.7858334	0.14143568	0.57444704	-0.26525095	-0.24538273	0.89546895
1.1636978905021974e-09	0.80827993	0.12654223	0.5451607	-0.23238641	-0.40514737	0.8452164
1.1748594745464726e-09	0.8279863	0.12692568	0.5143481	-0.19421864	-0.559024	0.76444733
1.186166521827017e-09	0.84359634	0.14289388	0.48436007	-0.14036119	-0.70148796	0.653754
1.1975238219206206e-09	0.85326785	0.17309456	0.45808166	-0.05884516	-0.8216665	0.517252
1.2088650924140766e-09	0.8555559	0.21428426	0.43791682	0.061055515	-0.9057202	0.36133176
1.2203397061547902e-09	0.8496773	0.26275575	0.42535016	0.22746961	-0.93543875	0.19120964
1.2315414257128702e-09	0.8363255	0.31176844	0.42151213	0.42862955	-0.88684154	0.022474188
1.2423873514325214e-09	0.81756973	0.35631388	0.42572376	0.63876975	-0.7419768	-0.131757
1.2522899185778533e-09	0.7972123	0.3912869	0.43578368	0.80899656	-0.5109082	-0.2512503
1.26169330690592e-09	0.77681065	0.4174406	0.44993326	0.9092083	-0.2078934	-0.33058178
1.2710965529469432e-09	0.7570527	0.4355145	0.46747136	0.90894115	0.1465928	-0.36016464
1.2800748993884761e-09	0.7401567	0.44471577	0.48625773	0.7959994	0.48052198	-0.3297758
1.289191112002003e-09	0.7260549	0.44600248	0.5062068	0.58510697	0.75367343	-0.23784544
1.2987674379837196e-09	0.71536535	0.43909317	0.5268545	0.31385148	0.9235717	-0.087586254
1.3082174388564485e-09	0.709366	0.42487818	0.54572564	0.06075915	0.96961504	0.09020279
1.317572269737916e-09	0.7078763	0.4047662	0.56190795	-0.13360232	0.92512	0.26987022
1.326919044443283e-09	0.71047693	0.38005877	0.57477856	-0.2605147	0.8280171	0.4352918
1.3362257942917481e-09	0.7165755	0.35237816	0.5837362	-0.3282315	0.7070502	0.5772466
1.3457777202629287e-09	0.7257725	0.322419	0.5885663	-0.35273302	0.57416725	0.69678146
1.3555757247172735e-09	0.737504	0.2918393	0.5888171	-0.34695217	0.43587214	0.79260945
1.3656291162529204e-09	0.7511273	0.26250103	0.5842969	-0.32246715	0.29346454	0.8644914
1.3758862971075228e-09	0.76585543	0.23656377	0.5751865	-0.28873515	0.1468173	0.9116195
1.3862812503484268e-09	0.78083456	0.2160983	0.5621177	-0.25275198	-0.004122601	0.93289524
1.3969112694093955e-09	0.7954048	0.20262863	0.5458596	-0.21803273	-0.16058448	0.92686343
1.4076476954022538e-09	0.8085352	0.19758298	0.5278009	-0.18544087	-0.31861025	0.89180607
1.418542821502714e-09	0.8193877	0.20150629	0.50927824	-0.15128888	-0.4748348	0.8265073
1.4295493667472526e-09	0.8270052	0.21419476	0.49188226	-0.10812847	-0.62243885	0.73135155
1.440755134912133e-09	0.8306092	0.23475964	0.47696695	-0.04449389	-0.7540336	0.607271
1.4520648247647295e-09	0.8295909	0.26120034	0.46597052	0.05163386	-0.85658514	0.45911944
1.4633832431864593e-09	0.8239333	0.29070166	0.45985377	0.18886997	-0.9132162	0.29465774
1.4748909106497568e-09	0.81402296	0.32084548	0.45898658	0.37141326	-0.90185386	0.12002538
1.4859200538834825e-09	0.80163306	0.34723857	0.46305874	0.5738803	-0.8011062	-0.04309015
1.4966835505900146e-09	0.7880875	0.36858708	0.47110945	0.76617134	-0.5973034	-0.18397649
1.5065527069376597e-09	0.77554816	0.383092	0.4813168	0.895045	-0.31474966	-0.28121206
1.5161096763414282e-09	0.76423734	0.391852	0.4930072	0.9321486	0.025299616	-0.32920235
1.5251981618347008e-09	0.7549312	0.39511988	0.5050402	0.8598225	0.36422694	-0.31898907
1.5342428696942218e-09	0.74757814	0.39352852	0.51719415	0.6868778	0.65817934	-0.249007
1.5437897303721468e-09	0.7422546	0.3869488	0.529473	0.4366409	0.8683721	-0.117771745
1.5534223427644633e-09	0.7396157	0.3758428	0.54056656	0.17751257	0.9573301	0.05308983
1.5628156848122146e-09	0.7396751	0.36153042	0.54952776	-0.031600222	0.9438044	0.23153633
1.5722342233049104e-09	0.74215484	0.34470737	0.55621415	-0.17715362	0.8656877	0.4019033
1.5816092901845862e-09	0.74671066	0.32655367	0.560287	-0.26068476	0.75435865	0.5514053
1.5910687229791812e-09	0.75301087	0.3079056	0.5616485	-0.29627237	0.6276967	0.67743504
1.6008431524144298e-09	0.7608378	0.28943217	0.5601859	-0.29782787	0.49163774	0.781087
1.6108701285968573e-09	0.7697238	0.2724747	0.55587053	-0.27701172	0.34995115	0.86067814
1.621281683213676e-09	0.77928406	0.25811756	0.5487966	-0.24352743	0.20060371	0.916095
1.631910827844442e-09	0.78878385	0.24782874	0.5394786	-0.20574746	0.04508374	0.9447432
1.6426870885879854e-09	0.79753387	0.24256481	0.5286685	-0.16908246	-0.115414634	0.9448377
1.6537511275382671e-09	0.8049902	0.2428457	0.51707727	-0.13464509	-0.28083706	0.914076
1.66499080687099e-09	0.8104293	0.24881792	0.5057879	-0.09998564	-0.4449215	0.8506814
1.6763454193464014e-09	0.81330794	0.25993767	0.49584055	-0.05764746	-0.59982675	0.7548831
1.6879547218406163e-09	0.81329703	0.27534193	0.4880271	0.004888952	-0.7376891	0.62709576
1.699691348783168e-09	0.8102957	0.29339796	0.4831698	0.10098939	-0.84341633	0.4728136
1.7115124690148782e-09	0.80461	0.31221795	0.48168397	0.24120466	-0.8981053	0.30002734
1.7234840804172106e-09	0.7968305	0.33002236	0.48363253	0.42786577	-0.87615293	0.1182835
1.7346502473413903e-09	0.7885606	0.34402072	0.48825914	0.62661767	-0.7600532	-0.04441412
1.7455209058138049e-09	0.78037196	0.35422617	0.49485987	0.8082284	-0.5394867	-0.18071546
1.7557024031941008e-09	0.7732193	0.36017978	0.5023614	0.9210237	-0.23723759	-0.270964
1.7652251831488021e-09	0.7674284	0.36238378	0.51001406	0.9335876	0.10225224	-0.30575204
1.774273801602413e-09	0.7630218	0.36146843	0.5174053	0.8410708	0.4275234	-0.2825261
1.7834803315539187e-09	0.759837	0.3576869	0.5246199	0.65362555	0.7034956	-0.19970085
1.7929634320912825e-09	0.7580591	0.35111377	0.531313	0.4077647	0.88495785	-0.06221014
1.8024564553061005e-09	0.75785077	0.34230378	0.53688914	0.16671406	0.95240104	0.10694235
1.811960142221306e-09	0.7591574	0.3318707	0.54104763	-0.026618939	0.9278644	0.2838021
1.8214912074741098e-09	0.7618323	0.32048595	0.5435879	-0.1566895	0.8446576	0.45020577
1.830994869959614e-09	0.7656281	0.30893624	0.5444056	-0.22763349	0.7314166	0.59496146
1.8406032197489326e-09	0.77032566	0.29777348	0.54350996	-0.25366834	0.6035833	0.71604335
1.8504582741284357e-09	0.7757129	0.2875548	0.5409235	-0.24834615	0.46691006	0.81368417
1.8605240030898824e-09	0.7814488	0.27903792	0.53678274	-0.22334385	0.3241557	0.8868389
1.870938437406562e-09	0.787243	0.27280405	0.5312681	-0.1878906	0.1731512	0.93536127
1.8816099991403824e-09	0.7926336	0.26950645	0.5247893	-0.1495595	0.014743717	0.9567849
1.892677462003518e-09	0.79724723	0.2695344	0.5177496	-0.11240261	-0.1522744	0.94839257
1.904100073446903e-09	0.8006127	0.27309328	0.5107664	-0.07729973	-0.3240022	0.9065095
1.915730587331246e-09	0.80232406	0.2799163	0.50456744	-0.040215895	-0.49197292	0.8294248
1.92764359263298e-09	0.80217075	0.28943443	0.49971592	0.009309177	-0.6479479	0.7165071
1.939845702436192e-09	0.80010015	0.30073443	0.4967234	0.08629764	-0.7787406	0.57000446
1.9521655899787715e-09	0.7963517	0.31247795	0.49593002	0.2049234	-0.86432993	0.3982982
1.964579695874669e-09	0.7913958	0.3234024	0.4973538	0.3727689	-0.87994343	0.21224135
1.97627548582276e-09	0.78620666	0.33189783	0.50049484	0.5666736	-0.8030991	0.038247306
1.9873210465738597e-09	0.781343	0.33771074	0.50471663	0.7546243	-0.62636364	-0.10977749
1.9977682901339485e-09	0.7771524	0.3409227	0.509462	0.8946442	-0.3582977	-0.2183059
2.0076446085505186e-09	0.77380854	0.3418118	0.5142771	0.9477524	-0.031206122	-0.27542806
2.01685043514131e-09	0.7713808	0.3407846	0.5187673	0.89758396	0.2980855	-0.27511185
2.0259891886091155e-09	0.76972353	0.33810097	0.5229766	0.75009596	0.5939463	-0.21705967
2.035597552215988e-09	0.76885796	0.33369792	0.5268903	0.52315205	0.81847966	-0.09896137
2.0449992860987207e-09	0.7689115	0.32812092	0.53000003	0.28420195	0.9284303	0.05605733
2.054508281822453e-09	0.76984906	0.32159302	0.53225315	0.07493188	0.93979114	0.22930478
2.0640742034494337e-09	0.77160406	0.314571	0.53350645	-0.07710807	0.8799903	0.3995749
2.0737311208806496e-09	0.77405983	0.30748776	0.5337014	-0.168795	0.7781056	0.553754
2.0833674970795367e-09	0.77701473	0.30087426	0.53285486	-0.20941731	0.65630907	0.68359464
2.0932038677564627e-09	0.7803395	0.29500747	0.53101873	-0.21379563	0.52290696	0.78984845
2.1031146413576013e-09	0.7837784	0.29035085	0.5283393	-0.19465938	0.3838146	0.8706898
2.11343670473058e-09	0.78721297	0.28711793	0.52489424	-0.16178216	0.23499537	0.9279729
2.1239192749276527e-09	0.7903075	0.285689	0.52099514	-0.124008805	0.07976567	0.95858645
2.1348001105147694e-09	0.7928732	0.28620887	0.51684994	-0.08615481	-0.08483374	0.9608128
2.146007761717517e-09	0.79463744	0.28873453	0.5128276	-0.05076951	-0.25513098	0.9310884
2.1575278192801774e-09	0.7953975	0.29310563	0.50929815	-0.015519679	-0.4254312	0.8665648
2.1693222759378764e-09	0.7950427	0.29893592	0.5066159	0.027535368	-0.5866222	0.7662175
2.181596551627888e-09	0.793553	0.30578348	0.5050405	0.093068965	-0.72883934	0.6289551
2.1941767392604545e-09	0.79107654	0.3128503	0.50480545	0.19735955	-0.83168614	0.46092498
2.2069874263864416e-09	0.78792655	0.3193203	0.5059413	0.35253158	-0.86896634	0.27259925
