# t (s)	mx ()	my ()	mz ()	m.region1x ()	m.region1y ()	m.region1z ()
0	0	1	0	0	1	0
1.023e-12	-0.024343133	0.99957323	0.015732184	-0.02746817	0.99947816	0.017001236
2.047e-12	-0.04809071	0.9983181	0.03155639	-0.05428101	0.99794364	0.034088906
4.095e-12	-0.09364319	0.9934844	0.06337478	-0.105743766	0.99203897	0.06838858
8.191e-12	-0.17654455	0.97563505	0.12730107	-0.1994327	0.97029626	0.13693555
1.5450110706182372e-11	-0.29537958	0.9235728	0.23948343	-0.33372676	0.90740305	0.25542077
2.2644133477511725e-11	-0.37835154	0.85568917	0.34646136	-0.42810905	0.82651436	0.3654765
2.9964427939961476e-11	-0.4306485	0.7784555	0.448724	-0.48977566	0.7359245	0.4674155
3.7495312610089414e-11	-0.45580742	0.69611496	0.54552025	-0.52421147	0.64092606	0.5606302
4.5289586989126304e-11	-0.45727494	0.6110628	0.63585097	-0.5365806	0.5444602	0.64456564
5.3352064452685593e-11	-0.43871439	0.5244548	0.7182747	-0.53178173	0.44804618	0.71846896
6.164984073102735e-11	-0.4042756	0.4364264	0.7911501	-0.5145704	0.35218298	0.78154737
7.016301532107591e-11	-0.35830006	0.34600562	0.8531155	-0.4893275	0.25629884	0.8332918
7.890794258678187e-11	-0.3048612	0.25141418	0.90301853	-0.45976	0.1590369	0.87331325
8.793248208466266e-11	-0.24759874	0.15060362	0.93956435	-0.42885244	0.058712225	0.90099335
9.728559804193476e-11	-0.18981948	0.042014066	0.96099305	-0.39896604	-0.046091855	0.91521
1.0699612453538684e-10	-0.13435224	-0.07473234	0.9651187	-0.37173107	-0.15607992	0.91436917
1.1672654309681104e-10	-0.084554955	-0.19414216	0.9505063	-0.34836942	-0.2671128	0.89753675
1.256238140785413e-10	-0.043371987	-0.30314544	0.9207938	-0.32918313	-0.36856067	0.86818403
1.3415334537113266e-10	-0.0057062916	-0.404976	0.87798846	-0.3105625	-0.46479085	0.8277093
1.4262842075590543e-10	0.03306978	-0.50091314	0.8221634	-0.28892004	-0.5583423	0.7758696
1.5116311795202696e-10	0.077417314	-0.58926237	0.7534149	-0.26031673	-0.64917165	0.7124497
1.5953804355052306e-10	0.13031742	-0.6645141	0.67484367	-0.22154346	-0.73333055	0.6398993
1.6769764622336006e-10	0.1946041	-0.72301906	0.5890664	-0.16949157	-0.8083338	0.5601061
1.7573571688520396e-10	0.27304718	-0.76170385	0.49732333	-0.10066608	-0.8723231	0.47354567
1.835840035330943e-10	0.36527514	-0.7759405	0.40282992	-0.013631709	-0.9210536	0.3823913
1.9136067537037018e-10	0.47079772	-0.76110405	0.3069177	0.093774885	-0.9502784	0.28683326
1.9911615147690833e-10	0.58599055	-0.711488	0.21214516	0.22182906	-0.9533142	0.18799423
2.0671855015986707e-10	0.7012792	-0.62409365	0.123812206	0.36486447	-0.92268777	0.0898759
2.1411038918740706e-10	0.8056973	-0.49995402	0.0463265	0.51437646	-0.85272044	-0.0038415815
2.2146594615080202e-10	0.89040935	-0.33962956	-0.018307202	0.66315854	-0.7366933	-0.09175067
2.2887926504001618e-10	0.94446194	-0.14751771	-0.06667826	0.7984185	-0.56898946	-0.17018694
2.362428223554028e-10	0.95750713	0.061849378	-0.09453519	0.9002175	-0.35396296	-0.23233864
2.435206225302847e-10	0.92619085	0.27159217	-0.1000527	0.9510022	-0.10417435	-0.2723999
2.5076617548375034e-10	0.853405	0.46700487	-0.08321796	0.9388823	0.16251189	-0.2858968
2.580164650114882e-10	0.7472511	0.63513136	-0.04524441	0.8598212	0.42220637	-0.2695829
2.652612313745868e-10	0.62043124	0.7663593	0.011080068	0.7216623	0.6485069	-0.22298956
2.726003866693911e-10	0.48518556	0.8581038	0.08295724	0.5405654	0.8233492	-0.1479915
2.8012590631018073e-10	0.3532341	0.91088897	0.16747148	0.33834004	0.9359229	-0.0485633
2.87923005235402e-10	0.2350098	0.92768204	0.26156187	0.13844988	0.9844682	0.06946188
2.960403087834095e-10	0.13932937	0.91315836	0.3616305	-0.03793065	0.97579384	0.19862688
3.04272888952393e-10	0.073636435	0.87435323	0.4610462	-0.17327508	0.92474365	0.3276217
3.127518187142869e-10	0.037837297	0.81700057	0.55776525	-0.26641628	0.8462742	0.4521922
3.2162850318802733e-10	0.030826136	0.7439869	0.65002877	-0.32031325	0.7505009	0.5698313
3.310446090094147e-10	0.0508835	0.65581524	0.7354624	-0.3395919	0.6431641	0.6785227
3.408303615019163e-10	0.09358674	0.55428475	0.8086414	-0.3305276	0.5297596	0.77348477
3.5091319010884903e-10	0.15207477	0.43982768	0.86560285	-0.30180228	0.41160288	0.8523407
3.60967049274591e-10	0.21685573	0.3166376	0.90228105	-0.26320368	0.2913088	0.91198343
3.709318437152554e-10	0.28088105	0.18770884	0.9177619	-0.22250484	0.16838023	0.9523069
3.809811130644754e-10	0.34091032	0.054621283	0.91186863	-0.18434703	0.040265515	0.97366184
3.9124319107744626e-10	0.3958385	-0.078820184	0.8838978	-0.15168302	-0.09398906	0.9749632
4.0128121787037387e-10	0.44460917	-0.20033602	0.8363274	-0.12666981	-0.22660083	0.95584345
4.1109236362953193e-10	0.49099076	-0.30382013	0.7726028	-0.10708432	-0.35467753	0.917695
4.210102026065646e-10	0.5411608	-0.38644975	0.69378805	-0.088002995	-0.47943482	0.86011654
4.306298603481002e-10	0.59699357	-0.43935016	0.606995	-0.0643628	-0.5927207	0.7870472
4.398691553413505e-10	0.6592764	-0.45948902	0.5178113	-0.030533383	-0.69115436	0.7023053
4.4897391575420055e-10	0.72817117	-0.4452827	0.4284078	0.019636728	-0.7744899	0.60652715
4.5792244729500857e-10	0.79923886	-0.3949895	0.34339494	0.090422794	-0.8383782	0.5024626
4.668793280170951e-10	0.86666584	-0.30732888	0.2657705	0.186059	-0.87788254	0.3907569
4.756592968887509e-10	0.9201258	-0.18725368	0.20151114	0.30440307	-0.88453406	0.2767163
4.844692872392502e-10	0.9517083	-0.03917054	0.15307415	0.4439377	-0.8493549	0.16135997
4.932695009027169e-10	0.9536466	0.12557358	0.12416551	0.5947532	-0.7621733	0.049952436
5.020186545186317e-10	0.92300546	0.29222643	0.116748795	0.7402256	-0.61626303	-0.050886072
5.108560296324374e-10	0.8615265	0.44879657	0.1310924	0.86060405	-0.40766177	-0.13501267
5.198108174888666e-10	0.7760216	0.5826359	0.16630661	0.9299474	-0.14352956	-0.19325146
5.287667333729787e-10	0.6789144	0.68330854	0.21893105	0.9249371	0.14958689	-0.21593462
5.37815666658852e-10	0.58173513	0.74850345	0.28517523	0.8361679	0.43879157	-0.19712126
5.469886166022089e-10	0.4952488	0.7790081	0.36056608	0.6724784	0.6851113	-0.13495827
5.563092856852385e-10	0.42749864	0.77827406	0.4404827	0.46213084	0.85736644	-0.03390314
5.659033027476562e-10	0.38276005	0.7504561	0.52134407	0.2415023	0.943327	0.097267516
5.75854645036618e-10	0.36307904	0.69896775	0.59928685	0.046108916	0.9478857	0.24635781
5.860241502347556e-10	0.36769384	0.6279484	0.66891706	-0.09749029	0.89047647	0.39749494
5.964050576452241e-10	0.39250222	0.54055864	0.72645265	-0.18356065	0.794671	0.53972554
6.072169784634498e-10	0.4328387	0.43740937	0.76932794	-0.21919635	0.6753586	0.66856676
6.18665295346967e-10	0.4839704	0.31929287	0.79386854	-0.21454544	0.5389727	0.78048027
6.307883704433821e-10	0.5404999	0.19084321	0.7955094	-0.18171108	0.3877734	0.87033993
6.429967820302968e-10	0.59558743	0.06674192	0.7724032	-0.13651153	0.22918913	0.9305256
6.547877960719924e-10	0.64627	-0.038629428	0.7286839	-0.092654034	0.070704974	0.95924526
6.6661747208093e-10	0.6962633	-0.12065154	0.66742504	-0.05452612	-0.09100735	0.95851725
6.782763259773732e-10	0.7467573	-0.17003918	0.5949717	-0.023501296	-0.24856254	0.92880636
6.892648072794817e-10	0.7958821	-0.1821597	0.52108365	0.003368503	-0.39018002	0.8752067
6.999900208011693e-10	0.8431192	-0.1585315	0.4492086	0.033759877	-0.51661986	0.8005507
7.10755440188322e-10	0.8849581	-0.09936371	0.38288778	0.07628706	-0.62615114	0.70593464
7.21197168863934e-10	0.91375333	-0.011453734	0.32925144	0.1364266	-0.70954907	0.5985431
7.313637120453866e-10	0.92451024	0.09603826	0.291292	0.21797366	-0.7620031	0.48296586
7.414919233244851e-10	0.9142344	0.21465717	0.2703571	0.32326862	-0.7775703	0.36146024
7.516340711808909e-10	0.8824171	0.33335674	0.267616	0.44918466	-0.74689394	0.23883174
7.61810119609773e-10	0.8324015	0.44105417	0.28278708	0.5860512	-0.6604454	0.12151245
7.718540394134472e-10	0.77202845	0.52745456	0.31333995	0.7149282	-0.5149433	0.01916493
7.818375324764214e-10	0.709327	0.5887095	0.35583675	0.8156275	-0.31290933	-0.060696147
7.917686070624938e-10	0.6519048	0.6237911	0.40626368	0.8668123	-0.067412	-0.10996232
8.015284920534578e-10	0.60591304	0.6342342	0.4598591	0.8534412	0.19431996	-0.122199506
8.112978338816841e-10	0.5735328	0.6233489	0.51386	0.7721017	0.44619498	-0.09488308
8.212199879164926e-10	0.5557255	0.593619	0.5657267	0.6302476	0.6593262	-0.027642341
8.312082048145529e-10	0.5523752	0.54803234	0.6119995	0.45208612	0.8052433	0.07375099
8.41611596483191e-10	0.5621594	0.4874233	0.651313	0.2637308	0.87342924	0.20335099
8.531441822213466e-10	0.58500254	0.40909415	0.681939	0.08985335	0.85932446	0.3579785
8.646991226730159e-10	0.6161274	0.32412273	0.697346	-0.025408225	0.7779451	0.5070723
8.763565178094685e-10	0.65189546	0.23778385	0.6968184	-0.08170817	0.6569902	0.63907504
8.8851930825316e-10	0.69088095	0.153947	0.67973435	-0.09119191	0.5107111	0.75001246
9.01853979733251e-10	0.7336362	0.077875756	0.6440424	-0.06649809	0.33988565	0.8367908
9.160560632474378e-10	0.77813506	0.024523549	0.5913855	-0.022729054	0.15305968	0.8880024
9.296978817423386e-10	0.8185407	0.007312225	0.5330312	0.021897662	-0.025821168	0.8972944
9.427959427549019e-10	0.85231674	0.025271367	0.47663707	0.062283736	-0.19067763	0.870497
9.556335450797277e-10	0.8762104	0.07424511	0.42742157	0.10178412	-0.33818865	0.8125573
9.680879838701231e-10	0.8859679	0.14577581	0.39070565	0.1463645	-0.4602623	0.72999674
9.80158323716355e-10	0.8796241	0.22891612	0.3691463	0.2027689	-0.55141115	0.6299749
9.918037610441344e-10	0.85834956	0.31216347	0.36318403	0.2751098	-0.6069916	0.520275
1.0032933946849855e-09	0.82527965	0.38792178	0.3715654	0.36598822	-0.6236002	0.40538186
1.014541089319882e-09	0.7859135	0.4487416	0.39200038	0.47146562	-0.596101	0.29291654
1.0258436370180866e-09	0.7450546	0.49192572	0.42210305	0.5862806	-0.5185506	0.18691766
1.0368534842382092e-09	0.70915926	0.5148362	0.4574868	0.6938309	-0.39128792	0.09769058
1.0471058977745693e-09	0.68261445	0.51936483	0.49288028	0.7750494	-0.22817418	0.033701967
1.0567888079647425e-09	0.6653324	0.5099553	0.5260681	0.82058954	-0.04154077	-0.0042088917
1.0661916562432633e-09	0.65627134	0.48967466	0.5561497	0.82441723	0.15753792	-0.01569623
1.0754559212011131e-09	0.65447414	0.46069038	0.5821807	0.78303355	0.35370028	0.00018399325
1.0847444925258988e-09	0.6589627	0.4245171	0.6034572	0.69771105	0.5302315	0.04380533
1.0941814398951133e-09	0.668851	0.38250706	0.61918294	0.5763339	0.66907233	0.11417335
1.1036265376883912e-09	0.682902	0.33735412	0.6283538	0.43812475	0.75314325	0.20526262
1.1134294799310765e-09	0.70063376	0.28971493	0.6306323	0.30001476	0.77834827	0.31283504
1.1241949698085346e-09	0.7224702	0.23967932	0.6247781	0.17779306	0.7425873	0.4342303
1.1351217230470537e-09	0.74592465	0.19486842	0.6106185	0.097721286	0.6582477	0.54917794
1.1460664494170476e-09	0.7696374	0.15939255	0.58947194	0.06042066	0.54585296	0.64759594
1.1572491906493434e-09	0.793046	0.13575085	0.56259114	0.05621219	0.41720447	0.7262592
1.1693129246215864e-09	0.8160378	0.12676771	0.5303301	0.07576823	0.27255455	0.78420407
1.182745643191312e-09	0.8367969	0.13786313	0.49430433	0.11184582	0.111181475	0.815425
1.1971784964301438e-09	0.8504415	0.17258836	0.4603545	0.1557591	-0.05603659	0.81093407
1.2111562586358514e-09	0.8524239	0.22327836	0.43649918	0.1994463	-0.20456839	0.7715684
1.2248197062969683e-09	0.8425936	0.28120053	0.4245832	0.24594079	-0.3291469	0.70387524
1.238032239395719e-09	0.8231652	0.33686054	0.42476645	0.30055162	-0.42288682	0.6163227
1.250989363579889e-09	0.7976947	0.38400382	0.43549603	0.36973688	-0.4824801	0.5156624
1.2639339630274433e-09	0.77011096	0.4185671	0.45473853	0.4586564	-0.502872	0.4074218
1.276648416795766e-09	0.7451469	0.43755168	0.4792291	0.56512046	-0.47648534	0.30081183
1.288658010154941e-09	0.72655946	0.4413155	0.50467503	0.67665964	-0.40047234	0.2067158
1.2998786515643626e-09	0.71515954	0.43321118	0.52814424	0.7775809	-0.2776092	0.1312257
1.3102032957662252e-09	0.7101945	0.41718256	0.54778653	0.85037076	-0.1186985	0.07881695
1.3199490387516521e-09	0.71015394	0.39596304	0.5634468	0.8831629	0.06511994	0.050594963
1.329429422071373e-09	0.71392125	0.37108448	0.57520676	0.86674786	0.2593565	0.0484554
1.3384992120964385e-09	0.7204318	0.34471905	0.5827673	0.80105627	0.43656313	0.07304902
1.3475755103910801e-09	0.729192	0.31716102	0.5864608	0.6938274	0.5811825	0.12351155
1.3574252014488385e-09	0.74060374	0.28751543	0.5860182	0.55291736	0.6813416	0.20228712
1.3679836742904366e-09	0.7543318	0.25800872	0.5806053	0.40628135	0.7185771	0.3034916
1.378572337476917e-09	0.76890564	0.23284945	0.5705941	0.28980976	0.69695294	0.409557
1.3891302264536454e-09	0.78346175	0.21401337	0.5569181	0.2136827	0.63743603	0.50975025
1.400073237205348e-09	0.79771435	0.20252226	0.5400644	0.17339604	0.5536413	0.6013025
1.41161827164094e-09	0.8108301	0.2001445	0.5209177	0.16304857	0.45255473	0.680756
1.4234054005041828e-09	0.8211041	0.20804287	0.50175375	0.17462872	0.341738	0.7419984
1.4353496565466905e-09	0.8272744	0.22561066	0.48458314	0.19896275	0.2242294	0.78265893
1.4473881406958798e-09	0.82841736	0.25090367	0.47119653	0.22901326	0.1025352	0.8012253
1.4595064246369154e-09	0.8241747	0.28103292	0.46289623	0.26078823	-0.020270227	0.79686826
1.4717703591440709e-09	0.81482834	0.31273884	0.46040863	0.2937546	-0.1404256	0.76923436
1.4840494609807946e-09	0.8015835	0.34215397	0.4638379	0.33002305	-0.25097275	0.71949697
1.4965125253827119e-09	0.7860058	0.36649963	0.47267258	0.37519208	-0.34666863	0.64907044
1.5090913277595037e-09	0.77027816	0.38316125	0.48577386	0.43552348	-0.41887867	0.561604
1.521792082154734e-09	0.75650275	0.39072853	0.5015602	0.51660275	-0.4577236	0.4618611
1.5347635993466864e-09	0.74630976	0.38881713	0.5183768	0.62107944	-0.44997296	0.3548992
1.5475294244608593e-09	0.7410276	0.37842265	0.53374004	0.73726827	-0.38175547	0.25290716
1.5590763205376843e-09	0.7404225	0.3632094	0.5452895	0.8367286	-0.25886118	0.17225108
1.569712432247886e-09	0.74303234	0.34577224	0.5531595	0.90183246	-0.09428555	0.116421744
1.579651716735182e-09	0.747722	0.3277765	0.5577084	0.9198386	0.09255173	0.088010766
1.5890500596503483e-09	0.7536705	0.31030017	0.55936384	0.887353	0.2780076	0.087773085
1.5982944384938247e-09	0.7605295	0.2935909	0.5584947	0.8092648	0.44417837	0.11488745
1.6080483031397875e-09	0.76844984	0.27741447	0.55504644	0.69224775	0.5788613	0.17046162
1.6181290409971707e-09	0.7769815	0.2632424	0.5490655	0.5596176	0.66186994	0.24958606
1.6282018959801944e-09	0.7854543	0.25257388	0.54110307	0.43974915	0.690693	0.34077725
1.6382449547379148e-09	0.79341644	0.24611388	0.5317816	0.34714994	0.6777033	0.43471935
1.648442139586065e-09	0.8005373	0.24423124	0.52160364	0.28442758	0.6351935	0.52637833
1.6586776884842455e-09	0.80624586	0.24712637	0.51141655	0.250215	0.57271737	0.61008966
1.6691730410083133e-09	0.810178	0.25471905	0.50177526	0.238974	0.4942053	0.684264
1.679883400692679e-09	0.81185806	0.2665226	0.49350944	0.24548282	0.40248948	0.74557936
1.690814760925829e-09	0.8109828	0.28162703	0.48733437	0.26424646	0.29912603	0.79137975
1.7019047001186706e-09	0.80749637	0.29863745	0.48383683	0.29018643	0.18660502	0.81900376
1.7133357883438356e-09	0.8015289	0.3162687	0.48333737	0.3200051	0.06598676	0.826466
1.724981659951532e-09	0.7936409	0.3326275	0.48596296	0.3514805	-0.05689731	0.81167173
1.736722929977178e-09	0.7847506	0.3459798	0.4914014	0.38479117	-0.17472681	0.7744629
1.7487423824888663e-09	0.7757317	0.35523576	0.49917608	0.42356974	-0.28198642	0.7151311
1.7610017443088476e-09	0.76767987	0.35942417	0.50848144	0.47289106	-0.36960763	0.63595617
1.773403369913809e-09	0.761606	0.3581909	0.51825434	0.53781384	-0.42718312	0.54167664
1.7860423911996603e-09	0.75815296	0.35179353	0.5275081	0.6220102	-0.4437278	0.43741855
1.7989609667757517e-09	0.7576845	0.34097385	0.53523743	0.7232525	-0.40531424	0.33058548
1.811391165275187e-09	0.75996065	0.32787117	0.5403152	0.82265043	-0.30602264	0.23698103
1.822698658321605e-09	0.76393116	0.31495407	0.542583	0.89599085	-0.16018122	0.16892019
1.833187453312183e-09	0.7687577	0.30315223	0.5426129	0.9300342	0.014919435	0.12854622
1.843108514310762e-09	0.7739025	0.29291177	0.5408957	0.9179925	0.19895524	0.11672512
1.8528233139154767e-09	0.7791203	0.28432298	0.5377588	0.86025983	0.3733989	0.13322328
1.8629078805204163e-09	0.784413	0.27737963	0.5332571	0.76112705	0.5235307	0.178848
1.8733631343414234e-09	0.7894988	0.2726925	0.52761936	0.6379163	0.62795955	0.2508328
1.883796169697112e-09	0.793929	0.27083716	0.52143955	0.5192266	0.6768164	0.33831275
1.8941815310122116e-09	0.7974692	0.27189013	0.5151982	0.4230095	0.6788927	0.4313047
1.9046755987980085e-09	0.79994243	0.27577293	0.5092679	0.3554196	0.64617467	0.5233938
1.9155226960529816e-09	0.8011413	0.2823832	0.5039987	0.31627524	0.58685696	0.61071235
1.9269357469729618e-09	0.800799	0.2915003	0.49983382	0.30315197	0.50497913	0.6896043
1.9389804903946377e-09	0.79868436	0.3025072	0.4973239	0.31204173	0.40284967	0.75513726
1.951524292759222e-09	0.7948142	0.31419724	0.49694872	0.33673978	0.2838161	0.80148757
1.9647130728649353e-09	0.78942406	0.32529998	0.49894422	0.37084225	0.14960589	0.8241436
1.978611364821532e-09	0.78307474	0.33427578	0.5032954	0.40918428	0.005215444	0.81793636
1.9930846442364654e-09	0.7767329	0.339556	0.5095223	0.4495657	-0.13811244	0.77913547
2.008035941797196e-09	0.77149963	0.34014544	0.5167217	0.4954699	-0.2654647	0.70758486
2.023347709776518e-09	0.76835424	0.33588198	0.52371454	0.5551865	-0.3590521	0.6078426
2.0389014209467965e-09	0.767876	0.32754707	0.5293083	0.63681644	-0.399681	0.4894192
2.0534887744038825e-09	0.769851	0.31751773	0.5324364	0.7322169	-0.3728607	0.37461928
2.0667391477075446e-09	0.7733046	0.30793163	0.5332028	0.8237073	-0.2835305	0.2787241
2.078699669507529e-09	0.7773169	0.29992867	0.53220433	0.8926147	-0.14721954	0.20911038
2.0896960654456325e-09	0.781323	0.29380256	0.530031	0.9261285	0.017899096	0.1676564
2.100037274664729e-09	0.78500944	0.2895263	0.52711475	0.9177912	0.19256112	0.15452039
2.109873547631357e-09	0.7881787	0.28699636	0.5237969	0.86905974	0.35571882	0.16838568
2.1196520769772645e-09	0.7908239	0.28603444	0.52021766	0.7866755	0.49418446	0.20722403
2.130159297682936e-09	0.7929863	0.28669873	0.5163342	0.6771105	0.5993133	0.27215743
2.1412605227100976e-09	0.79443794	0.28918588	0.51249266	0.5617245	0.65466946	0.35796872
2.1521800589947466e-09	0.7949978	0.29319543	0.5092604	0.468208	0.659337	0.44954938
2.1633751108431803e-09	0.79467005	0.29856017	0.50675815	0.40257365	0.6253279	0.541807
2.1751098076089887e-09	0.79338443	0.30502605	0.5052162	0.36687165	0.56034595	0.62953055
2.187316567073046e-09	0.7911471	0.31198618	0.50489926	0.35944763	0.47093403	0.7056878
2.20035587948566e-09	0.7879976	0.31885892	0.5059922	0.37501177	0.35829526	0.7660145
2.214487327073135e-09	0.7841271	0.32474095	0.5086282	0.40746748	0.22295398	0.8037391
2.229549983827378e-09	0.7800774	0.32840165	0.51262105	0.4488778	0.07201708	0.8102081
2.245421095329611e-09	0.7765833	0.32888463	0.51740676	0.4934639	-0.08185905	0.7792887
2.2622005021330193e-09	0.7743935	0.32576326	0.52217597	0.54274565	-0.22119765	0.7081516
2.2789478367191847e-09	0.7741253	0.31973147	0.52575856	0.60243434	-0.31699887	0.60621744
2.2951793972693793e-09	0.7757019	0.31235123	0.5275188	0.6785572	-0.35089377	0.49016747
2.3100151315198177e-09	0.7784455	0.3055145	0.527449	0.7636465	-0.31750032	0.38207075
2.323255436039821e-09	0.7815592	0.3002538	0.5260992	0.8421162	-0.22776717	0.29524788
2.3352439430183916e-09	0.7845463	0.2967417	0.5240189	0.89950836	-0.09691202	0.2338704
2.346256544169211e-09	0.78711706	0.29485202	0.52161133	0.92459416	0.05756182	0.19933163
2.356547990986983e-09	0.78913534	0.29433313	0.5191444	0.9123364	0.2171101	0.19103207
2.366467113721976e-09	0.7905779	0.29493207	0.516758	0.8640053	0.3659183	0.20726627
2.376448347255179e-09	0.7914591	0.29649734	0.51451784	0.7850487	0.4913906	0.24673836
2.3872972437327298e-09	0.7917706	0.29909265	0.51243246	0.6815346	0.58430994	0.31106412
2.398530944570049e-09	0.791452	0.3025092	0.51080275	0.57760364	0.62802947	0.39253667
2.409956557573172e-09	0.79055965	0.30645612	0.5098065	0.49363616	0.62492484	0.48088345
