# t (s)	mx ()	my ()	mz ()	m.region1x ()	m.region1y ()	m.region1z ()
0	0	1	0	0	1	0
1.023e-12	-0.024340402	0.9995733	0.015731046	-0.0275869	0.9994746	0.017014684
2.047e-12	-0.048085306	0.99831843	0.031554125	-0.054517	0.9979298	0.03411863
4.095e-12	-0.093632594	0.9934857	0.06337035	-0.10620745	0.9919846	0.06845793
8.191e-12	-0.17652452	0.97564006	0.12729275	-0.20031321	0.9700912	0.13710259
1.545201519774169e-11	-0.2953723	0.92357165	0.23949933	-0.33521318	0.9067482	0.25579646
2.264506387737461e-11	-0.378316	0.855707	0.34646034	-0.42994544	0.825349	0.36594525
2.9964765298519076e-11	-0.4305969	0.7784916	0.4487162	-0.491845	0.734241	0.46787387
3.749720367171466e-11	-0.45574746	0.696146	0.5455365	-0.5264803	0.63873154	0.56098413
4.529254827038905e-11	-0.45719638	0.6110931	0.63588476	-0.5390664	0.54180086	0.6446995
5.335426045676679e-11	-0.4386165	0.52450264	0.71830785	-0.5345499	0.44497308	0.71828395
6.165264533950423e-11	-0.40415177	0.4364746	0.7911969	-0.51769483	0.34869763	0.78099775
7.01660845076324e-11	-0.35814834	0.3460542	0.8531722	-0.49287364	0.25242138	0.8323261
7.891163996592995e-11	-0.30467677	0.2514546	0.9030855	-0.4637784	0.1547854	0.8718786
8.793826322761267e-11	-0.2473711	0.15061393	0.93964195	-0.43337828	0.054100852	0.89902335
9.729037847831602e-11	-0.18956839	0.042023815	0.9610665	-0.4040308	-0.05099155	0.9126102
1.0699885534127172e-10	-0.13408372	-0.074713826	0.96518826	-0.37731993	-0.16121462	0.9110403
1.16730576597973e-10	-0.084253035	-0.19415733	0.950567	-0.35437745	-0.27246928	0.8933904
1.2562705338333892e-10	-0.043051496	-0.30316648	0.9208464	-0.33543238	-0.3740519	0.8632226
1.341563472799983e-10	-0.0053664045	-0.40500665	0.87802947	-0.31685337	-0.47037435	0.8219105
1.4263115064071958e-10	0.033428807	-0.50094855	0.8221912	-0.2950184	-0.56396973	0.76919997
1.5116333192660143e-10	0.077783905	-0.5892743	0.75344735	-0.2659483	-0.6547594	0.7049011
1.595370799315727e-10	0.13069612	-0.664512	0.6748725	-0.22640565	-0.73880804	0.6314826
1.6769606364017189e-10	0.19499679	-0.7230007	0.58908725	-0.173288	-0.81358016	0.5508628
1.7573439037410325e-10	0.27346113	-0.7616636	0.49732733	-0.10310288	-0.87715125	0.46352345
1.8358458186194875e-10	0.36573076	-0.7758639	0.40279803	-0.0144586675	-0.92519385	0.37165397
1.913613615761743e-10	0.4712706	-0.7609676	0.3068748	0.09470775	-0.95332396	0.27549726
1.9911697796621273e-10	0.58646995	-0.7112737	0.2120969	0.22456944	-0.9547381	0.17617993
2.067196675071712e-10	0.70174825	-0.6237853	0.123765364	0.3692321	-0.9218827	0.077743776
2.1411095057664316e-10	0.8061182	-0.4995609	0.04630005	0.5198998	-0.84907323	-0.016077984
2.2146572899597395e-10	0.8907526	-0.33916777	-0.018302344	0.66908634	-0.7295767	-0.10383299
2.288790982183331e-10	0.94470763	-0.14698926	-0.06663878	0.8036328	-0.5578808	-0.18177724
2.3624452497529754e-10	0.9576309	0.06246209	-0.094456	0.9032563	-0.33875084	-0.24300393
2.435218097940282e-10	0.92618287	0.27217287	-0.09991951	0.9502385	-0.08553724	-0.2815979
2.5076702866620725e-10	0.8532858	0.4675097	-0.083033934	0.9329328	0.18323748	-0.2930721
2.58018315436182e-10	0.74703836	0.63555074	-0.045009483	0.8478984	0.44306618	-0.27422884
2.6526373436522394e-10	0.620177	0.7666569	0.0113552585	0.7039789	0.66718775	-0.2247929
2.7260189590945994e-10	0.48497233	0.8582573	0.0832421	0.5183428	0.83773434	-0.14691694
2.801279397718638e-10	0.3530784	0.9109355	0.1677653	0.31344655	0.9446436	-0.04484802
2.8792546670549507e-10	0.23494473	0.92764825	0.26185012	0.1130497	0.98704815	0.07528062
2.9604271833634086e-10	0.13937502	0.91307753	0.36189663	-0.061948135	0.9726741	0.20580725
3.0427689776205675e-10	0.07377747	0.87424546	0.46130407	-0.19481546	0.9170582	0.3353906
3.127540442395295e-10	0.038082328	0.8169038	0.55797255	-0.28506345	0.8352287	0.4598118
3.2163068456547417e-10	0.031151887	0.7438986	0.65020555	-0.33626962	0.73705614	0.5767666
3.3104515007331153e-10	0.051272828	0.65574944	0.7355947	-0.35341114	0.6280403	0.68429863
3.4083156340332133e-10	0.09403389	0.55421174	0.8087486	-0.3430328	0.5134014	0.7777884
3.5091471107570136e-10	0.15256944	0.4397399	0.86567813	-0.31386873	0.394285	0.85490835
3.609733409720462e-10	0.21741687	0.31646925	0.9023305	-0.27560326	0.27316725	0.91266775
3.709375053030242e-10	0.2814632	0.18752232	0.91775763	-0.23584926	0.14965093	0.95093036
3.8098684499548354e-10	0.34151074	0.054411788	0.9118059	-0.19901307	0.021135278	0.9700449
3.9124625174097144e-10	0.39644152	-0.07900591	0.88378114	-0.16780593	-0.11323776	0.96889156
4.012823515925079e-10	0.44522443	-0.20049351	0.8361623	-0.14399019	-0.24570268	0.94723034
4.110954511853831e-10	0.49164551	-0.30397132	0.7723698	-0.12503052	-0.37344182	0.9064779
4.210142353056875e-10	0.54186416	-0.38655096	0.6934945	-0.10573473	-0.49763688	0.846208
4.306356204124351e-10	0.59776276	-0.43936938	0.60664165	-0.08081652	-0.6102091	0.77051693
4.398768748738682e-10	0.66012	-0.45938447	0.51740843	-0.044602934	-0.707751	0.68330073
4.4898239224071945e-10	0.729076	-0.44500974	0.42798412	0.009085498	-0.78984714	0.5851921
4.5792929635942005e-10	0.8001634	-0.39452907	0.34299442	0.08439425	-0.8518919	0.47901195
4.668887816630904e-10	0.86760104	-0.3066171	0.2653809	0.18547772	-0.8885524	0.36534697
4.756668278490162e-10	0.92098176	-0.18633518	0.20119679	0.30954778	-0.89090943	0.24974152
4.844777205818285e-10	0.9524307	-0.03801939	0.15284522	0.45460218	-0.849417	0.13322082
4.932814737285767e-10	0.95415455	0.12696385	0.12404905	0.6096423	-0.75353765	0.021285428
5.020296890197898e-10	0.9232442	0.29368755	0.11678286	0.7565069	-0.5968273	-0.079046
5.108672287476494e-10	0.86147004	0.4502394	0.13129035	0.87402195	-0.37602416	-0.16129638
5.198231038003129e-10	0.77568275	0.58394945	0.16667497	0.9349723	-0.10026976	-0.21584387
5.287791370337348e-10	0.67837775	0.68436855	0.21944945	0.9162588	0.2006693	-0.23284823
5.378284496796749e-10	0.58111024	0.7492377	0.28581366	0.81053823	0.49103135	-0.20656897
5.469994196174461e-10	0.49468404	0.779388	0.3612606	0.6306299	0.7302972	-0.13597481
5.563233453659998e-10	0.42706725	0.778333	0.44122785	0.40890667	0.88869137	-0.026725326
5.659196519070505e-10	0.38256145	0.7502442	0.5220819	0.18435928	0.9572777	0.11109178
5.758718196615466e-10	0.36315802	0.6985629	0.5999604	-0.007730162	0.94512093	0.26434726
5.860431720521223e-10	0.3680361	0.6274117	0.6694993	-0.14363702	0.87474173	0.41694528
5.964259351710134e-10	0.39306402	0.5399329	0.7269173	-0.22094832	0.77021456	0.55837834
6.072406419137543e-10	0.4335687	0.43670738	0.7696547	-0.24895385	0.6453413	0.68476737
6.18688822225435e-10	0.48479775	0.31855893	0.794027	-0.23896435	0.5053359	0.79294616
6.308153100797316e-10	0.54138756	0.19006371	0.79548323	-0.20355776	0.35146073	0.8780896
6.430226784664174e-10	0.59647894	0.06600529	0.77219206	-0.15839013	0.19091605	0.9328798
6.548123627762e-10	0.6471554	-0.03927045	0.7283096	-0.11619572	0.031154785	0.9558847
6.666443920958001e-10	0.69716907	-0.121160224	0.66688895	-0.08031967	-0.13113122	0.9489995
6.783008108964291e-10	0.74768174	-0.17032522	0.5943334	-0.051014096	-0.28833634	0.9129472
6.892891626431308e-10	0.796846	-0.18219161	0.52037275	-0.024316989	-0.4288958	0.8532797
7.000170402218961e-10	0.8441293	-0.15825927	0.4484503	0.008028701	-0.5536854	0.77277195
7.107795958640701e-10	0.88596475	-0.098777406	0.3821652	0.0551099	-0.6608218	0.672586
7.212203294690292e-10	0.91471815	-0.010553647	0.32859835	0.122361705	-0.74099463	0.56016475
7.313883051068139e-10	0.92537713	0.09724789	0.2907426	0.2132381	-0.78885496	0.44015813
7.415142943305184e-10	0.9149422	0.2160846	0.26996157	0.32954004	-0.797491	0.3149408
7.516553185079033e-10	0.88291687	0.33493876	0.26740098	0.46707803	-0.7564219	0.18951024
7.618313845375252e-10	0.8326578	0.44270837	0.2827744	0.61428994	-0.6550189	0.070732504
7.718769661413683e-10	0.7720301	0.5290875	0.3135413	0.7493589	-0.48988092	-0.031118011
7.818580898865151e-10	0.7091251	0.59019154	0.3562281	0.8488691	-0.26462206	-0.107789755
7.91715558717948e-10	0.6519253	0.62488544	0.4064368	0.88852656	0.00254987	-0.150354
8.013970943522162e-10	0.6060535	0.63521415	0.4597203	0.853667	0.2805988	-0.15287217
8.110687638747338e-10	0.5736684	0.6244953	0.5133101	0.74337685	0.53773427	-0.113074526
8.208842886361481e-10	0.55565125	0.5952199	0.5648085	0.57124656	0.7412454	-0.031641874
8.308800103631323e-10	0.55196035	0.54971194	0.61136544	0.36818662	0.8645749	0.08480973
8.419565579208218e-10	0.562597	0.48485187	0.65314996	0.15795496	0.8997663	0.23628667
8.532716373499488e-10	0.58550334	0.40756288	0.68279403	-0.0032673855	0.8494155	0.39503998
8.645933309423218e-10	0.6162658	0.32416186	0.6977206	-0.098617144	0.74589646	0.5415633
8.761880814233932e-10	0.65200216	0.2382102	0.6972023	-0.13739805	0.6126946	0.6690362
8.887710379695548e-10	0.6924565	0.15155572	0.6792767	-0.13326684	0.454749	0.7766079
9.028458820093987e-10	0.7376166	0.072430916	0.64063543	-0.09819727	0.27079216	0.857067
9.170265677932199e-10	0.7819575	0.021594197	0.58706206	-0.052043412	0.0819778	0.89519244
9.306125881354439e-10	0.8219564	0.007126196	0.5285416	-0.00889238	-0.09766443	0.89158285
9.436865438646302e-10	0.8551779	0.027624309	0.4723807	0.029918604	-0.2630211	0.85213906
9.565149737039682e-10	0.8782282	0.07881267	0.42378953	0.070384085	-0.41053015	0.7815439
9.6894013043489e-10	0.8868654	0.15178776	0.38808644	0.12036129	-0.53164685	0.6868429
9.809804862308944e-10	0.8793542	0.23553908	0.3676841	0.18777539	-0.6206539	0.57529646
9.926076106909173e-10	0.8570596	0.31870368	0.36286348	0.2769661	-0.67168057	0.45476723
1.0040725212930315e-09	0.8232945	0.39371717	0.37228745	0.39002252	-0.6787523	0.32993057
1.015312904621446e-09	0.7835754	0.45348316	0.39360315	0.52085423	-0.6334243	0.20875058
1.0266045776278851e-09	0.7427635	0.4953562	0.42436865	0.6600016	-0.5255096	0.0963269
1.037231735918945e-09	0.7083048	0.5165237	0.45889023	0.7788821	-0.36120638	0.007559082
1.0472436668516718e-09	0.6824539	0.5205336	0.4936169	0.85776687	-0.15350527	-0.0526399
1.0568181190267784e-09	0.6652942	0.5110572	0.526548	0.8824276	0.08017339	-0.08149099
1.0662470452558832e-09	0.6560799	0.49055043	0.5568152	0.84411764	0.32051006	-0.0766071
1.0756046588490592e-09	0.654175	0.46097592	0.5831636	0.74305725	0.5386753	-0.03628171
1.0848905922859574e-09	0.65863365	0.42441252	0.60443014	0.5948672	0.70575804	0.0368497
1.0946918808053707e-09	0.66904545	0.3802468	0.62057716	0.4164971	0.80848205	0.14204122
1.1053975385343664e-09	0.6855545	0.32843015	0.63002336	0.23587403	0.8331577	0.2751479
1.11628573281476e-09	0.7061326	0.27544674	0.6305334	0.09779967	0.7851993	0.41298485
1.1269135722966616e-09	0.7283914	0.22704178	0.6224658	0.016119976	0.69445646	0.5370209
1.1378907394688482e-09	0.75234044	0.1840582	0.6061692	-0.020437244	0.5771855	0.64643776
1.1497948967343976e-09	0.77815694	0.14922118	0.5811136	-0.021040563	0.4375605	0.73945343
1.1632444874392552e-09	0.80553126	0.12844972	0.5467235	0.0066131838	0.27294526	0.8105061
1.1780566811385263e-09	0.8309858	0.1311155	0.50639343	0.05153844	0.08869773	0.8464742
1.1926982873785295e-09	0.84803426	0.15940256	0.469729	0.09855227	-0.090710565	0.83906466
1.2068239557926461e-09	0.8537357	0.2063108	0.44233534	0.14404367	-0.25349686	0.79333043
1.2206192060078393e-09	0.84740436	0.26333216	0.42654663	0.19393368	-0.39373118	0.7157016
1.2339420128415278e-09	0.8305854	0.32060868	0.42312247	0.25642413	-0.50241745	0.61503273
1.2469677868347836e-09	0.80651605	0.37111667	0.4308389	0.3403627	-0.5735425	0.4986475
1.2598652937728072e-09	0.779192	0.40997094	0.44770852	0.45150223	-0.5979831	0.37331355
1.2728411154863959e-09	0.75261605	0.43427882	0.4713686	0.5896704	-0.5610847	0.24570851
1.2848952461230743e-09	0.7321419	0.4424558	0.49659282	0.7288779	-0.4561681	0.13503851
1.2958983508611545e-09	0.71883637	0.43824846	0.52004415	0.84267974	-0.29189757	0.050152596
1.3062891194042369e-09	0.71165824	0.42516473	0.5408105	0.9110365	-0.079479925	-0.0060245693
1.3158968525083582e-09	0.70964575	0.40645212	0.55760264	0.91692495	0.14971688	-0.028491987
1.3250585909266105e-09	0.7115136	0.38392642	0.57062924	0.85950714	0.3701883	-0.01752824
1.3343300761078617e-09	0.7166671	0.3577808	0.5802494	0.74381053	0.5628922	0.027438976
1.3445673783758072e-09	0.7255043	0.32669076	0.586248	0.5756426	0.7098598	0.11159015
1.354940750688776e-09	0.7370652	0.2948388	0.58716244	0.4018941	0.77793694	0.22152756
1.3653220629136799e-09	0.7504543	0.26478586	0.58298945	0.25725117	0.7769921	0.3416305
1.3758749503380105e-09	0.7650902	0.23824766	0.57401043	0.15463838	0.727807	0.46158224
1.3865379609781575e-09	0.78007525	0.21745469	0.56092143	0.09541704	0.6487211	0.5723102
1.3974964862187281e-09	0.79478836	0.20394607	0.5444487	0.07203393	0.5497459	0.67021245
1.4086592674395855e-09	0.80812025	0.19935925	0.5259952	0.075839475	0.43731743	0.75055754
1.4200271576704051e-09	0.8189984	0.20441277	0.5071333	0.097526126	0.31407717	0.8104956
1.4316158657550982e-09	0.8263223	0.21893957	0.48955584	0.12910768	0.18162334	0.8475779
1.4433839392620195e-09	0.8290779	0.24164829	0.47501352	0.1644746	0.042978942	0.8595308
1.4552867093086953e-09	0.82666683	0.27013874	0.46497822	0.20034921	-0.09717286	0.84500855
1.467343323912463e-09	0.81910205	0.3013788	0.46040297	0.23723029	-0.23322868	0.80372983
1.4795177806224978e-09	0.80716515	0.33185259	0.4616825	0.27914965	-0.35758513	0.7369554
1.4918690116241388e-09	0.7922622	0.35839358	0.46857822	0.3334064	-0.46233588	0.6470322
1.5044121386009015e-09	0.7763406	0.37822503	0.48026913	0.40834567	-0.53710717	0.538051
1.5170073101617255e-09	0.76171046	0.38932958	0.49520412	0.5089307	-0.56824416	0.4174174
1.5298837117406782e-09	0.7500234	0.3910994	0.51189893	0.6361921	-0.53924537	0.29111037
1.5424193907374296e-09	0.74296093	0.38412297	0.5276966	0.77007735	-0.43627447	0.17572832
1.5537160904251655e-09	0.74055845	0.37163323	0.5401959	0.8755166	-0.2724495	0.08904365
1.5642918142531147e-09	0.74153066	0.35587507	0.54952633	0.9338633	-0.06335025	0.033381462
1.5741855835331962e-09	0.7448739	0.33873248	0.5556712	0.93143606	0.16177179	0.012466881
1.583668205643937e-09	0.749863	0.3211568	0.55895686	0.8686922	0.37559727	0.026073392
1.5933179678355555e-09	0.7563166	0.30313715	0.5595923	0.75246453	0.5596994	0.074167274
1.6038743373251192e-09	0.7645099	0.28447586	0.5572333	0.59293234	0.6960932	0.1597935
1.6143239923972553e-09	0.7733184	0.26833668	0.55202603	0.43713543	0.75787914	0.26632148
1.6247232966308216e-09	0.7822781	0.25572115	0.5444706	0.31030044	0.7587078	0.38067383
1.635386847708411e-09	0.7911143	0.24727984	0.5349195	0.2204739	0.71533954	0.49562937
1.6462401940530648e-09	0.79914796	0.2439488	0.5241436	0.16968541	0.6416552	0.60255104
1.6574595005863125e-09	0.80582035	0.2462292	0.51284677	0.15226121	0.54543996	0.69731885
1.668889127876829e-09	0.8103471	0.25414023	0.50218487	0.1607093	0.4329731	0.7741377
1.680816044022296e-09	0.81218135	0.26739237	0.49297053	0.18687572	0.3040923	0.83077216
1.6929944418590443e-09	0.8108109	0.2845763	0.48641995	0.22239278	0.16392231	0.86214226
1.7055292556663627e-09	0.8061515	0.30400783	0.48325637	0.2613113	0.01541003	0.86547965
1.7183797780825042e-09	0.79858994	0.32339406	0.4839437	0.30070066	-0.13439412	0.8384115
1.7315116874889194e-09	0.7890475	0.34033313	0.4884463	0.3423012	-0.27589205	0.7804988
1.744960825500838e-09	0.77881134	0.3527559	0.49624646	0.392879	-0.39797688	0.6933682
1.7586996347755866e-09	0.7694156	0.35908347	0.5063396	0.46199134	-0.4866754	0.5817292
1.7727748298573859e-09	0.7622643	0.35858092	0.5174162	0.5584282	-0.525372	0.45273632
1.7870178363509361e-09	0.75845987	0.35152787	0.5278319	0.6813154	-0.4935509	0.31886482
1.799784776549962e-09	0.7581887	0.34081018	0.53537154	0.7995622	-0.39014578	0.20792188
1.8113601271383987e-09	0.76029015	0.32874712	0.54010624	0.8910703	-0.2297287	0.12591301
1.822039989273774e-09	0.7638304	0.316697	0.5424204	0.938191	-0.03212551	0.07582839
1.8320533056304742e-09	0.7681521	0.30543268	0.542732	0.931398	0.17799157	0.058905363
1.8417767810676939e-09	0.7729229	0.29519206	0.54137695	0.8705702	0.37851465	0.07466729
1.85167957469476e-09	0.7780534	0.28604907	0.538479	0.76187366	0.55032843	0.12303817
1.8623201196154714e-09	0.7835736	0.2782519	0.5339362	0.6175815	0.67531693	0.20485955
1.872773435350979e-09	0.7887282	0.27313343	0.52840006	0.478571	0.73239106	0.30435342
1.8831477414791022e-09	0.7933028	0.27088714	0.52228487	0.36563247	0.73419327	0.4102966
1.8936574396420806e-09	0.79710096	0.27162117	0.5159357	0.28626534	0.6955588	0.5154708
1.9045817924502057e-09	0.7998717	0.27546462	0.5096922	0.24060303	0.62653184	0.615462
1.9160364534450175e-09	0.80124426	0.28241298	0.5040785	0.22597721	0.53317463	0.70511514
1.9280315893600578e-09	0.80086356	0.29206812	0.49973318	0.23674673	0.41926622	0.7788271
1.9405847893014348e-09	0.79852545	0.30359164	0.49725842	0.26523328	0.287064	0.83125573
1.953880377954939e-09	0.7942116	0.31587192	0.49713188	0.30391726	0.13744186	0.8571451
1.9678563141723596e-09	0.7883018	0.32720017	0.49962968	0.34618735	-0.023154717	0.8502024
1.98224202536921e-09	0.7817029	0.33566552	0.5045001	0.38914573	-0.18118982	0.80692196
1.9972284955226063e-09	0.7754059	0.33997947	0.511158	0.438173	-0.32369047	0.7262678
2.012596386378472e-09	0.770636	0.33929116	0.5184967	0.5036042	-0.42973667	0.6132891
2.0279982299785146e-09	0.76830816	0.33390126	0.5251608	0.59471214	-0.47722515	0.4806092
2.04257110780547e-09	0.7685921	0.32556418	0.5298963	0.7050846	-0.45028535	0.35032988
2.0558894009656993e-09	0.770786	0.31642923	0.5323717	0.81401205	-0.35100514	0.24028333
2.0677234153598285e-09	0.77393264	0.30810988	0.532917	0.8963953	-0.19854268	0.16119546
2.0785968830751647e-09	0.7774425	0.30102476	0.53207284	0.93793607	-0.012028458	0.11367538
2.088791999331438e-09	0.78094184	0.29535094	0.5302368	0.93032813	0.1858196	0.098166406
2.0985685950114835e-09	0.78422606	0.29109454	0.5276987	0.8743522	0.37232015	0.11347997
2.108363252549013e-09	0.7872521	0.28818193	0.52459455	0.7771889	0.5307306	0.1580603
2.118977649145524e-09	0.79007995	0.2866783	0.52085125	0.6467213	0.64931864	0.23373076
2.130021666273805e-09	0.79240215	0.2869932	0.5168414	0.5127811	0.7074423	0.33192754
2.1409953675955318e-09	0.7939769	0.2891509	0.5130573	0.40493682	0.7082002	0.437062
2.1522641972853515e-09	0.7947367	0.2930723	0.50969213	0.33097583	0.66593605	0.54229635
2.1641331835419937e-09	0.7945326	0.29865682	0.50701666	0.29237568	0.58998436	0.6419716
2.176644494066861e-09	0.79321873	0.30550653	0.50540835	0.28656507	0.48680538	0.72875786
2.1900083804460267e-09	0.7907288	0.3130205	0.5052023	0.30686694	0.3584568	0.7964692
2.2042791481445556e-09	0.7871901	0.32019916	0.50665444	0.3443938	0.20735472	0.8370535
2.219679860951049e-09	0.78295237	0.32585406	0.50982386	0.39034355	0.036893	0.8418224
2.2358870194711133e-09	0.77881235	0.32859933	0.5142922	0.43811446	-0.1367141	0.8029071
2.2526719143150467e-09	0.7756851	0.3276806	0.5192212	0.4906171	-0.29069394	0.7190917
2.269531196020419e-09	0.77433157	0.32333362	0.5235121	0.558892	-0.3969078	0.5998929
2.285232429819063e-09	0.7748832	0.31713307	0.52621114	0.6470275	-0.43223765	0.47035554
2.299579423435895e-09	0.77678907	0.3106878	0.5272378	0.74772954	-0.39449927	0.34983784
2.3124547741090873e-09	0.7793534	0.30511647	0.5269194	0.8420421	-0.29306597	0.25206462
2.324267678870491e-09	0.7820915	0.30077788	0.5256796	0.91195416	-0.1417719	0.18171431
2.3351253756254835e-09	0.78463775	0.29779878	0.5238901	0.94171315	0.03778161	0.14217257
2.34529141826007e-09	0.7868146	0.29605547	0.52181834	0.92521924	0.22296248	0.13306952
2.355142568729128e-09	0.78857297	0.2953749	0.51961094	0.8645425	0.3946615	0.15273526
2.3652227436320128e-09	0.78992265	0.2956698	0.5173147	0.76605946	0.5386168	0.20055535
2.376433993367552e-09	0.790857	0.29707292	0.51490426	0.6373076	0.64243096	0.27979347
2.387510152391584e-09	0.7912083	0.2994254	0.5128478	0.518044	0.6841639	0.3742086
2.3988554044335027e-09	0.79100984	0.30262914	0.51123244	0.42397398	0.6751385	0.47584015
2.410611213695468e-09	0.7902491	0.3065099	0.51020855	0.3636699	0.6263232	0.57638323
2.42304704379295e-09	0.7889035	0.31083405	0.50992614	0.33764198	0.5452911	0.6697259
